0.43850000
0.44350000
0.45350000
0.45850000
0.46650000
0.47900000
0.47750000
0.47650000
0.48200000
0.48650000
0.48600000
0.48150000
0.47500000
0.46650000
0.45850000
0.44950000
0.44550000
0.44250000
0.44150000
0.43850000
0.44100000
0.44500000
0.44550000
0.44350000
0.45200000
0.46900000
0.47050000
0.46700000
0.46550000
0.46400000
0.46700000
0.46450000
0.45600000
0.45150000
0.44050000
0.43550000
0.43150000
0.42650000
0.42850000
0.42350000
0.42300000
0.42750000
0.43550000
0.44250000
0.45400000
0.46550000
0.46550000
0.45900000
0.45250000
0.45700000
0.46250000
0.45350000
0.43850000
0.43850000
0.43400000
0.42250000
0.42300000
0.42700000
0.43300000
0.43400000
0.44050000
0.44950000
0.45700000
0.45950000
0.45650000
0.46050000
0.46100000
0.45650000
0.45650000
0.45550000
0.44800000
0.45050000
0.44200000
0.43300000
0.42700000
0.41250000
0.41400000
0.41250000
0.41450000
0.41400000
0.41650000
0.42550000
0.42650000
0.43300000
0.44200000
0.45050000
0.45300000
0.45150000
0.44850000
0.45400000
0.45750000
0.45300000
0.44050000
0.43000000
0.42450000
0.41350000
0.41200000
0.40950000
0.40550000
0.39850000
0.40000000
0.40400000
0.41550000
0.42650000
0.43100000
0.44600000
0.44800000
0.44900000
0.44600000
0.44700000
0.45150000
0.45300000
0.44650000
0.43200000
0.42650000
0.42050000
0.41550000
0.41050000
0.41400000
0.40900000
0.40150000
0.39950000
0.40750000
0.42200000
0.43350000
0.44400000
0.44350000
0.44300000
0.43400000
0.43750000
0.44600000
0.44300000
0.43650000
0.42800000
0.42350000
0.41000000
0.40850000
0.41350000
0.41500000
0.41150000
0.40300000
0.40650000
0.42050000
0.42600000
0.42950000
0.43700000
0.43750000
0.43950000
0.43050000
0.43300000
0.43800000
0.43500000
0.43900000
0.42900000
0.41450000
0.40750000
0.40550000
0.40550000
0.40900000
0.40500000
0.40050000
0.41000000
0.41700000
0.41800000
0.42550000
0.43150000
0.43850000
0.44700000
0.44050000
0.43900000
0.44600000
0.44550000
0.43700000
0.42900000
0.42300000
0.41600000
0.40900000
0.40600000
0.40850000
0.41100000
0.41800000
0.42300000
0.43000000
0.43150000
0.43150000
0.44000000
0.43850000
0.43300000
0.42950000
0.42350000
0.43050000
0.44050000
0.43400000
0.42950000
0.41850000
0.40850000
0.41750000
0.42100000
0.42450000
0.42100000
0.41550000
0.41450000
0.41700000
0.42900000
0.43750000
0.44400000
0.44250000
0.44350000
0.44350000
0.43900000
0.44200000
0.43750000
0.42900000
0.42550000
0.40950000
0.40350000
0.41050000
0.40650000
0.40650000
0.40050000
0.39850000
0.41300000
0.42600000
0.43250000
0.43550000
0.44100000
0.44900000
0.45000000
0.44400000
0.44050000
0.43700000
0.44450000
0.44450000
0.42650000
0.41600000
0.40700000
0.40150000
0.39950000
0.39800000
0.39750000
0.40500000
0.40650000
0.41200000
0.41950000
0.42700000
0.44050000
0.43900000
0.43600000
0.43750000
0.43500000
0.43500000
0.43550000
0.43500000
0.43650000
0.42150000
0.41750000
0.42000000
0.41350000
0.41800000
0.40750000
0.40200000
0.40900000
0.42200000
0.42800000
0.43650000
0.45350000
0.44900000
0.44200000
0.43950000
0.44300000
0.44300000
0.43800000
0.42800000
0.41850000
0.40350000
0.39600000
0.39750000
0.38900000
0.38600000
0.37500000
0.35850000
0.35750000
0.36100000
0.36100000
0.36350000
0.37000000
0.38550000
0.37800000
0.36500000
0.37100000
0.36350000
0.35700000
0.35100000
0.33800000
0.33000000
0.32050000
0.31600000
0.31650000
0.32100000
0.31950000
0.31450000
0.31700000
0.33250000
0.35500000
0.36400000
0.36250000
0.35650000
0.34350000
0.32600000
0.32800000
0.32150000
0.31000000
0.29450000
0.27700000
0.27350000
0.24750000
0.20850000
0.18750000
0.18550000
0.18450000
0.19150000
0.19950000
0.18800000
0.16500000
0.17250000
0.19250000
0.18000000
0.17000000
0.16850000
0.17400000
0.18350000
0.19200000
0.18250000
0.15000000
0.11700000
0.08550000
0.05800000
0.01400000
-0.02150000
-0.05250000
-0.08800000
-0.10350000
-0.09150000
-0.07100000
-0.04750000
-0.00600000
0.03150000
0.06700000
0.08750000
0.12300000
0.15700000
0.16450000
0.18700000
0.20650000
0.21150000
0.21900000
0.22850000
0.24150000
0.26050000
0.27350000
0.28450000
0.30000000
0.31500000
0.32600000
0.34000000
0.35650000
0.37100000
0.37800000
0.39200000
0.41400000
0.42050000
0.41750000
0.41350000
0.40900000
0.40200000
0.40800000
0.40350000
0.39900000
0.41300000
0.41800000
0.42200000
0.42900000
0.43850000
0.44200000
0.45200000
0.46300000
0.46250000
0.46300000
0.45800000
0.45200000
0.45100000
0.44300000
0.42400000
0.42050000
0.40900000
0.40200000
0.40250000
0.39550000
0.40500000
0.40300000
0.40050000
0.40150000
0.41350000
0.43150000
0.44700000
0.46100000
0.46150000
0.45650000
0.45050000
0.46250000
0.46500000
0.45100000
0.43900000
0.43900000
0.43450000
0.42350000
0.42650000
0.41650000
0.41750000
0.42600000
0.41750000
0.41550000
0.42900000
0.42550000
0.42750000
0.43800000
0.43600000
0.43650000
0.43350000
0.43850000
0.43750000
0.43750000
0.43050000
0.41950000
0.41100000
0.40200000
0.39350000
0.39850000
0.40550000
0.39300000
0.39150000
0.39550000
0.41150000
0.42250000
0.43550000
0.45050000
0.45550000
0.46500000
0.45950000
0.45600000
0.45100000
0.44650000
0.43800000
0.42700000
0.42200000
0.41400000
0.41100000
0.41250000
0.41300000
0.40750000
0.40700000
0.41200000
0.41750000
0.42200000
0.43650000
0.43600000
0.43100000
0.43300000
0.42900000
0.43700000
0.43500000
0.43350000
0.42850000
0.41750000
0.41500000
0.41500000
0.41300000
0.40350000
0.39900000
0.39950000
0.39900000
0.40100000
0.40500000
0.41000000
0.43200000
0.43400000
0.42500000
0.43800000
0.43900000
0.44450000
0.44750000
0.43400000
0.42450000
0.41100000
0.40200000
0.39950000
0.39450000
0.39500000
0.39500000
0.39100000
0.39300000
0.39650000
0.40450000
0.41000000
0.41500000
0.43000000
0.43000000
0.43000000
0.43300000
0.42950000
0.42850000
0.42550000
0.42500000
0.42550000
0.41950000
0.41250000
0.40900000
0.40550000
0.40550000
0.40900000
0.41050000
0.41250000
0.42300000
0.43450000
0.44700000
0.45200000
0.45300000
0.46200000
0.45450000
0.45150000
0.45700000
0.44550000
0.43700000
0.43650000
0.42450000
0.42400000
0.42600000
0.42050000
0.42350000
0.42100000
0.42050000
0.42450000
0.43400000
0.44050000
0.45050000
0.45850000
0.45800000
0.46150000
0.46250000
0.46600000
0.47000000
0.46250000
0.45500000
0.45900000
0.45000000
0.44650000
0.44900000
0.44300000
0.44000000
0.43700000
0.44050000
0.44350000
0.45150000
0.46300000
0.47700000
0.48050000
0.47600000
0.47900000
0.48350000
0.48950000
0.48500000
0.47500000
0.47050000
0.46850000
0.45350000
0.45350000
0.46350000
0.46250000
0.46800000
0.46350000
0.46150000
0.45900000
0.46700000
0.47750000
0.48400000
0.49600000
0.49750000
0.50150000
0.50600000
0.51000000
0.50800000
0.50450000
0.49750000
0.49150000
0.48600000
0.47800000
0.48150000
0.48150000
0.48100000
0.48000000
0.48000000
0.48600000
0.49400000
0.50150000
0.51200000
0.51900000
0.52250000
0.52750000
0.52850000
0.53150000
0.52800000
0.51850000
0.51200000
0.50650000
0.49850000
0.49700000
0.50100000
0.50050000
0.50600000
0.49950000
0.49300000
0.50100000
0.51350000
0.52450000
0.53050000
0.54450000
0.55650000
0.55450000
0.55100000
0.55450000
0.55400000
0.54950000
0.54050000
0.53500000
0.52550000
0.51750000
0.51850000
0.51950000
0.52300000
0.51850000
0.52100000
0.52300000
0.52650000
0.53450000
0.54250000
0.55200000
0.55200000
0.54650000
0.53950000
0.54550000
0.54700000
0.54000000
0.53200000
0.52450000
0.52000000
0.50900000
0.50200000
0.50350000
0.50300000
0.49750000
0.49450000
0.49350000
0.50050000
0.50650000
0.51150000
0.51500000
0.51150000
0.50950000
0.51050000
0.51300000
0.50700000
0.50000000
0.49000000
0.48300000
0.48050000
0.46700000
0.45700000
0.45550000
0.45150000
0.44750000
0.44850000
0.45250000
0.45950000
0.46500000
0.47350000
0.47400000
0.47600000
0.47850000
0.47100000
0.47300000
0.47650000
0.46900000
0.46000000
0.45500000
0.44650000
0.44150000
0.43750000
0.43650000
0.44100000
0.43100000
0.42450000
0.42950000
0.43900000
0.44400000
0.44900000
0.45700000
0.45850000
0.45950000
0.45700000
0.45650000
0.45450000
0.44900000
0.44500000
0.44200000
0.43200000
0.42500000
0.41650000
0.41150000
0.41650000
0.41350000
0.41150000
0.41450000
0.42100000
0.42550000
0.43650000
0.44650000
0.44950000
0.45550000
0.45300000
0.45100000
0.44900000
0.44750000
0.44000000
0.42850000
0.41700000
0.40700000
0.40800000
0.40800000
0.40850000
0.40350000
0.40550000
0.41200000
0.41400000
0.42150000
0.43150000
0.43800000
0.44350000
0.44650000
0.44250000
0.44300000
0.43700000
0.43200000
0.42850000
0.42300000
0.41350000
0.40600000
0.40200000
0.39900000
0.40450000
0.40150000
0.40300000
0.40800000
0.41500000
0.42000000
0.42850000
0.43950000
0.43900000
0.44100000
0.44200000
0.44300000
0.44150000
0.43550000
0.42900000
0.42450000
0.41700000
0.41300000
0.41200000
0.41050000
0.41400000
0.41250000
0.40900000
0.41000000
0.42250000
0.43050000
0.43950000
0.44650000
0.44500000
0.44500000
0.44600000
0.45350000
0.45050000
0.44300000
0.43600000
0.42950000
0.42600000
0.41800000
0.41800000
0.41450000
0.41350000
0.41500000
0.41550000
0.42450000
0.43400000
0.44200000
0.45050000
0.45500000
0.45950000
0.46700000
0.46350000
0.46150000
0.46050000
0.45100000
0.44000000
0.43200000
0.42600000
0.41800000
0.41700000
0.41800000
0.41300000
0.41500000
0.42350000
0.43200000
0.44100000
0.44300000
0.45150000
0.45950000
0.46000000
0.45950000
0.45900000
0.46100000
0.45900000
0.45800000
0.44750000
0.43800000
0.43150000
0.42550000
0.42650000
0.42700000
0.42450000
0.42300000
0.42550000
0.43050000
0.43750000
0.44250000
0.45250000
0.45600000
0.45650000
0.45950000
0.45950000
0.46500000
0.46400000
0.46000000
0.45200000
0.44650000
0.43600000
0.42300000
0.42150000
0.41950000
0.41800000
0.41700000
0.41950000
0.42450000
0.43400000
0.44350000
0.45100000
0.45600000
0.45750000
0.45450000
0.45000000
0.45550000
0.45900000
0.45550000
0.44550000
0.43900000
0.42900000
0.42200000
0.42050000
0.42050000
0.41950000
0.41100000
0.41050000
0.41450000
0.42700000
0.43300000
0.43650000
0.44150000
0.44200000
0.44700000
0.44750000
0.44800000
0.44600000
0.44300000
0.43900000
0.43350000
0.42500000
0.41600000
0.41100000
0.41300000
0.41200000
0.40050000
0.40200000
0.41250000
0.42550000
0.43550000
0.44200000
0.44800000
0.45050000
0.45250000
0.44750000
0.44700000
0.44950000
0.44350000
0.43400000
0.42850000
0.42050000
0.41250000
0.40800000
0.40650000
0.40650000
0.39700000
0.40250000
0.41600000
0.42650000
0.43350000
0.44100000
0.45000000
0.45300000
0.45050000
0.44300000
0.44650000
0.44900000
0.44650000
0.43800000
0.42950000
0.42300000
0.42000000
0.41800000
0.41300000
0.41700000
0.41150000
0.40950000
0.41650000
0.42550000
0.43150000
0.44200000
0.45150000
0.45000000
0.45250000
0.45450000
0.45800000
0.46100000
0.45650000
0.44800000
0.43950000
0.43000000
0.42450000
0.42200000
0.42250000
0.42600000
0.42350000
0.42600000
0.43550000
0.44600000
0.44850000
0.45650000
0.46400000
0.46600000
0.47000000
0.46800000
0.46900000
0.47000000
0.46200000
0.45050000
0.45000000
0.44650000
0.43650000
0.43000000
0.42700000
0.43000000
0.42850000
0.42800000
0.43700000
0.44900000
0.45650000
0.46350000
0.46700000
0.47050000
0.47150000
0.46850000
0.47200000
0.47200000
0.46550000
0.45850000
0.44950000
0.44000000
0.43850000
0.43600000
0.43150000
0.43450000
0.43500000
0.43350000
0.43850000
0.44700000
0.45100000
0.46150000
0.46750000
0.46900000
0.47550000
0.47750000
0.47650000
0.47450000
0.47050000
0.45900000
0.44900000
0.44500000
0.44550000
0.44700000
0.44200000
0.43700000
0.43800000
0.44050000
0.44450000
0.45650000
0.46050000
0.46350000
0.46700000
0.47000000
0.47250000
0.47300000
0.47850000
0.47800000
0.47350000
0.46800000
0.45900000
0.44750000
0.44550000
0.44150000
0.43850000
0.44400000
0.44050000
0.43850000
0.43950000
0.44700000
0.45400000
0.46500000
0.47350000
0.47200000
0.47100000
0.46900000
0.47800000
0.47900000
0.47400000
0.46700000
0.45700000
0.44800000
0.44500000
0.44700000
0.44050000
0.43800000
0.43550000
0.43550000
0.43700000
0.44750000
0.45850000
0.46650000
0.47200000
0.47750000
0.48000000
0.48000000
0.48050000
0.46950000
0.46050000
0.45350000
0.45300000
0.44700000
0.43700000
0.43050000
0.42800000
0.43350000
0.43050000
0.43100000
0.43700000
0.44250000
0.45200000
0.46550000
0.46750000
0.46550000
0.46600000
0.46500000
0.46850000
0.46600000
0.46150000
0.45400000
0.44250000
0.43550000
0.43300000
0.42950000
0.42850000
0.43000000
0.42850000
0.43200000
0.43850000
0.44300000
0.45150000
0.46400000
0.46900000
0.47000000
0.46900000
0.46950000
0.47200000
0.47150000
0.47000000
0.46000000
0.45150000
0.44300000
0.43400000
0.43100000
0.43400000
0.43800000
0.43300000
0.43250000
0.43850000
0.44550000
0.45400000
0.46450000
0.46600000
0.46700000
0.46950000
0.47000000
0.47300000
0.46950000
0.46550000
0.45950000
0.45450000
0.44600000
0.43900000
0.44100000
0.44000000
0.43500000
0.43350000
0.43800000
0.44650000
0.45200000
0.45400000
0.46350000
0.46700000
0.47000000
0.47250000
0.47450000
0.48200000
0.47750000
0.46550000
0.45800000
0.45200000
0.44300000
0.43700000
0.43500000
0.43700000
0.43600000
0.43500000
0.43900000
0.44750000
0.45350000
0.45600000
0.46350000
0.46150000
0.46650000
0.47100000
0.47100000
0.47600000
0.47350000
0.46700000
0.45800000
0.45100000
0.44450000
0.43550000
0.42950000
0.43000000
0.43350000
0.43500000
0.43400000
0.43950000
0.44700000
0.44350000
0.45550000
0.46350000
0.46950000
0.47600000
0.47000000
0.46950000
0.46850000
0.46550000
0.45450000
0.44200000
0.43300000
0.43150000
0.42950000
0.42650000
0.42750000
0.42500000
0.42700000
0.43300000
0.44500000
0.44950000
0.45500000
0.46250000
0.46250000
0.46200000
0.46200000
0.46550000
0.46250000
0.45650000
0.44850000
0.44500000
0.43950000
0.43350000
0.42550000
0.42250000
0.42650000
0.42150000
0.42500000
0.43050000
0.43950000
0.44300000
0.44800000
0.45750000
0.45850000
0.45900000
0.45750000
0.46100000
0.46300000
0.45350000
0.44500000
0.44050000
0.43150000
0.42500000
0.42150000
0.41850000
0.41950000
0.41750000
0.41850000
0.42450000
0.43400000
0.43900000
0.44150000
0.45000000
0.45750000
0.45650000
0.45550000
0.45950000
0.45500000
0.44550000
0.44150000
0.44100000
0.43150000
0.42500000
0.42100000
0.42050000
0.42750000
0.42500000
0.42200000
0.42550000
0.43500000
0.44300000
0.44600000
0.45200000
0.45700000
0.45750000
0.45400000
0.45600000
0.45400000
0.44950000
0.44400000
0.43550000
0.42900000
0.42400000
0.42050000
0.42100000
0.42050000
0.41800000
0.42050000
0.42600000
0.43100000
0.43700000
0.44250000
0.44600000
0.45650000
0.45800000
0.45250000
0.45800000
0.45750000
0.45050000
0.44550000
0.44200000
0.43450000
0.42500000
0.42000000
0.41850000
0.41900000
0.41850000
0.41650000
0.42100000
0.42550000
0.43450000
0.44300000
0.44100000
0.44850000
0.44800000
0.44900000
0.45350000
0.45350000
0.44900000
0.43700000
0.43350000
0.42700000
0.42300000
0.41850000
0.42000000
0.42350000
0.41900000
0.41700000
0.42300000
0.43200000
0.43800000
0.45150000
0.45450000
0.45600000
0.45600000
0.44750000
0.44650000
0.44850000
0.44800000
0.44350000
0.43950000
0.42900000
0.42200000
0.41750000
0.41900000
0.41700000
0.40400000
0.40500000
0.41250000
0.42450000
0.43250000
0.44150000
0.44650000
0.45000000
0.45300000
0.45050000
0.45250000
0.44700000
0.43950000
0.43250000
0.42500000
0.41650000
0.41450000
0.41250000
0.40950000
0.41200000
0.41050000
0.41100000
0.41450000
0.42250000
0.42950000
0.43850000
0.44150000
0.44350000
0.44800000
0.45100000
0.45650000
0.45450000
0.44750000
0.43850000
0.42850000
0.41400000
0.41050000
0.41400000
0.41100000
0.40950000
0.40750000
0.41450000
0.42200000
0.43000000
0.43100000
0.43350000
0.43550000
0.43200000
0.43650000
0.43650000
0.44050000
0.43700000
0.42550000
0.41050000
0.39100000
0.37800000
0.36600000
0.36000000
0.35950000
0.36200000
0.36300000
0.35800000
0.35600000
0.36100000
0.36200000
0.36050000
0.35950000
0.35400000
0.34250000
0.33700000
0.34550000
0.35100000
0.34000000
0.33300000
0.33100000
0.32750000
0.33600000
0.33850000
0.34000000
0.32900000
0.30800000
0.29850000
0.29350000
0.29550000
0.29900000
0.30050000
0.28850000
0.28700000
0.28250000
0.26450000
0.24050000
0.22350000
0.23450000
0.23500000
0.23650000
0.22200000
0.18350000
0.15250000
0.14850000
0.15650000
0.14800000
0.14800000
0.15900000
0.17400000
0.19100000
0.20050000
0.18550000
0.15050000
0.10950000
0.08350000
0.05850000
0.02000000
-0.01450000
-0.05350000
-0.08500000
-0.10550000
-0.10550000
-0.08450000
-0.05000000
-0.01650000
0.02000000
0.05950000
0.08700000
0.11600000
0.14100000
0.17750000
0.21200000
0.23100000
0.24450000
0.26000000
0.28250000
0.29400000
0.29800000
0.29850000
0.29750000
0.30050000
0.31000000
0.31800000
0.32550000
0.33350000
0.33850000
0.35300000
0.37600000
0.39400000
0.40750000
0.42550000
0.42750000
0.43200000
0.42800000
0.42000000
0.43200000
0.43550000
0.43150000
0.42250000
0.41950000
0.41300000
0.40600000
0.40500000
0.40100000
0.39750000
0.39300000
0.39350000
0.40100000
0.41150000
0.41300000
0.42250000
0.42800000
0.43050000
0.42950000
0.42500000
0.43500000
0.43450000
0.42800000
0.42200000
0.41700000
0.41150000
0.40850000
0.40500000
0.40500000
0.41150000
0.40900000
0.40650000
0.41350000
0.41750000
0.42050000
0.43050000
0.43400000
0.43750000
0.43900000
0.43450000
0.43750000
0.43850000
0.43100000
0.42350000
0.41450000
0.40300000
0.40000000
0.40000000
0.40150000
0.40100000
0.39200000
0.39400000
0.40000000
0.40650000
0.41250000
0.41750000
0.42200000
0.42400000
0.42850000
0.42150000
0.42150000
0.42500000
0.41650000
0.41050000
0.40050000
0.39200000
0.39050000
0.38850000
0.39200000
0.39600000
0.39000000
0.38700000
0.39500000
0.40150000
0.40900000
0.41900000
0.42300000
0.42800000
0.43000000
0.42450000
0.42550000
0.42800000
0.42500000
0.41050000
0.39650000
0.38900000
0.38500000
0.38500000
0.38200000
0.37650000
0.37150000
0.37350000
0.38150000
0.39000000
0.39550000
0.40500000
0.41000000
0.41150000
0.41050000
0.40750000
0.40600000
0.40250000
0.39450000
0.38350000
0.37950000
0.37200000
0.36850000
0.36600000
0.36500000
0.36550000
0.36450000
0.36550000
0.36800000
0.37600000
0.38050000
0.38750000
0.39300000
0.39850000
0.39850000
0.39650000
0.39450000
0.39050000
0.39100000
0.38350000
0.37450000
0.36650000
0.36000000
0.35900000
0.35950000
0.36050000
0.35750000
0.35900000
0.36700000
0.37200000
0.37650000
0.38550000
0.39250000
0.39800000
0.39300000
0.39050000
0.39550000
0.39650000
0.39450000
0.38550000
0.38100000
0.37250000
0.36600000
0.36200000
0.36050000
0.36250000
0.35850000
0.36350000
0.37250000
0.37900000
0.38550000
0.39750000
0.40650000
0.40950000
0.40650000
0.40700000
0.40950000
0.40500000
0.40450000
0.40050000
0.39200000
0.37700000
0.37150000
0.37900000
0.38300000
0.38200000
0.38100000
0.38200000
0.39000000
0.40100000
0.41150000
0.42000000
0.41950000
0.42150000
0.41750000
0.42000000
0.42750000
0.41900000
0.41650000
0.41400000
0.40600000
0.39750000
0.39350000
0.39350000
0.39950000
0.40150000
0.39650000
0.40150000
0.40600000
0.41100000
0.41950000
0.42800000
0.43000000
0.43250000
0.43500000
0.44150000
0.44850000
0.44100000
0.43450000
0.42850000
0.42150000
0.41650000
0.41450000
0.41250000
0.41300000
0.41300000
0.41300000
0.42200000
0.42900000
0.43450000
0.44200000
0.45550000
0.46000000
0.46000000
0.45850000
0.45550000
0.46100000
0.45800000
0.45700000
0.45450000
0.44900000
0.44400000
0.43850000
0.43300000
0.43150000
0.43450000
0.43400000
0.43750000
0.44400000
0.44850000
0.45350000
0.46750000
0.47900000
0.48150000
0.48000000
0.47500000
0.48100000
0.48100000
0.47250000
0.47050000
0.46400000
0.45200000
0.44850000
0.44600000
0.44650000
0.44900000
0.44900000
0.45250000
0.45950000
0.47150000
0.47700000
0.48500000
0.49300000
0.49700000
0.49500000
0.49050000
0.49050000
0.49000000
0.48300000
0.47150000
0.46750000
0.45700000
0.45100000
0.44800000
0.44700000
0.45150000
0.44800000
0.44800000
0.45400000
0.45850000
0.46500000
0.47650000
0.47950000
0.47800000
0.47500000
0.47100000
0.47350000
0.47200000
0.45600000
0.44050000
0.43650000
0.42750000
0.42100000
0.42200000
0.42400000
0.42100000
0.41300000
0.41150000
0.41500000
0.41900000
0.42350000
0.43350000
0.43550000
0.43300000
0.43150000
0.42900000
0.42550000
0.42150000
0.41200000
0.40200000
0.39450000
0.38000000
0.37700000
0.38100000
0.38400000
0.38000000
0.37250000
0.37400000
0.38300000
0.39000000
0.39200000
0.39900000
0.40050000
0.40200000
0.40300000
0.40350000
0.40400000
0.40250000
0.39550000
0.38050000
0.37950000
0.37250000
0.36900000
0.36500000
0.36350000
0.36700000
0.35950000
0.36000000
0.37050000
0.38150000
0.38350000
0.38850000
0.39100000
0.39350000
0.39500000
0.39500000
0.39800000
0.39350000
0.38650000
0.37400000
0.36950000
0.36550000
0.35850000
0.35300000
0.35500000
0.36100000
0.35450000
0.35250000
0.35950000
0.36950000
0.37300000
0.37900000
0.38600000
0.38900000
0.38750000
0.38750000
0.38800000
0.38100000
0.37750000
0.36650000
0.35600000
0.35100000
0.34450000
0.33950000
0.34150000
0.34150000
0.33850000
0.34650000
0.35250000
0.36100000
0.36750000
0.37750000
0.38200000
0.37900000
0.37800000
0.37850000
0.38850000
0.38250000
0.37350000
0.36750000
0.35350000
0.34350000
0.33500000
0.32950000
0.33400000
0.33750000
0.33300000
0.33800000
0.35100000
0.35550000
0.36000000
0.37350000
0.37950000
0.38050000
0.38100000
0.37850000
0.37550000
0.37200000
0.36650000
0.35550000
0.34200000
0.33500000
0.33100000
0.32750000
0.33200000
0.33050000
0.33100000
0.33600000
0.34450000
0.35800000
0.36350000
0.36900000
0.37300000
0.37300000
0.37200000
0.37450000
0.37200000
0.36350000
0.36100000
0.36600000
0.35400000
0.33400000
0.33250000
0.33000000
0.33350000
0.33200000
0.33350000
0.33400000
0.33550000
0.34700000
0.35150000
0.36050000
0.36350000
0.37000000
0.37250000
0.37450000
0.38300000
0.38200000
0.37250000
0.36150000
0.35350000
0.33850000
0.33650000
0.33650000
0.33600000
0.33600000
0.32900000
0.33000000
0.33400000
0.34400000
0.35150000
0.36050000
0.36700000
0.36950000
0.36850000
0.36700000
0.36800000
0.36350000
0.35950000
0.34750000
0.33650000
0.32800000
0.32750000
0.33300000
0.33750000
0.33550000
0.32750000
0.33450000
0.34500000
0.35100000
0.35500000
0.36550000
0.37550000
0.37700000
0.37500000
0.37250000
0.37600000
0.37400000
0.36300000
0.35350000
0.34800000
0.33300000
0.32450000
0.32900000
0.33100000
0.32950000
0.32500000
0.33250000
0.34350000
0.33850000
0.34050000
0.35150000
0.35650000
0.36450000
0.36750000
0.36750000
0.36500000
0.36100000
0.35700000
0.34600000
0.34250000
0.33150000
0.32400000
0.32850000
0.32650000
0.32600000
0.32500000
0.32750000
0.33650000
0.34250000
0.34100000
0.35500000
0.36850000
0.37100000
0.37200000
0.37300000
0.37650000
0.36900000
0.35700000
0.34800000
0.34100000
0.33100000
0.33100000
0.33500000
0.33600000
0.33500000
0.32900000
0.32450000
0.32700000
0.33950000
0.35500000
0.36500000
0.36450000
0.36550000
0.36350000
0.36200000
0.37050000
0.36250000
0.34850000
0.34500000
0.33750000
0.33350000
0.33100000
0.32300000
0.32400000
0.33000000
0.33050000
0.33400000
0.34550000
0.35750000
0.36850000
0.37550000
0.37700000
0.37950000
0.37650000
0.37250000
0.37500000
0.37000000
0.36000000
0.35250000
0.34200000
0.33400000
0.33000000
0.32750000
0.33150000
0.33050000
0.33050000
0.33650000
0.34750000
0.35300000
0.36150000
0.37800000
0.38050000
0.38250000
0.38100000
0.37700000
0.37500000
0.37500000
0.36850000
0.36000000
0.35600000
0.34150000
0.33400000
0.31950000
0.32400000
0.33250000
0.32700000
0.33200000
0.34000000
0.34900000
0.35250000
0.36400000
0.36550000
0.36850000
0.36950000
0.37200000
0.37650000
0.36650000
0.36050000
0.35200000
0.34800000
0.34550000
0.34250000
0.33850000
0.34150000
0.33450000
0.33750000
0.35150000
0.35650000
0.36800000
0.37550000
0.38950000
0.38900000
0.39350000
0.39900000
0.39050000
0.38650000
0.38000000
0.37700000
0.36750000
0.36000000
0.35650000
0.34500000
0.33450000
0.34250000
0.34350000
0.33150000
0.33250000
0.34300000
0.35050000
0.35600000
0.36600000
0.36050000
0.36450000
0.36350000
0.35900000
0.36650000
0.36300000
0.36050000
0.35200000
0.34350000
0.34100000
0.34150000
0.33450000
0.33400000
0.33550000
0.33700000
0.34900000
0.35650000
0.36400000
0.36650000
0.37400000
0.37650000
0.37750000
0.38000000
0.38050000
0.38200000
0.37850000
0.37950000
0.36900000
0.35700000
0.34950000
0.34400000
0.34050000
0.34300000
0.34400000
0.33700000
0.34850000
0.35800000
0.35650000
0.36850000
0.37750000
0.36950000
0.37450000
0.37850000
0.37350000
0.38250000
0.37850000
0.36900000
0.35700000
0.34700000
0.34350000
0.33650000
0.33300000
0.33250000
0.33600000
0.34200000
0.34650000
0.35400000
0.35850000
0.36350000
0.37400000
0.37200000
0.37300000
0.37300000
0.37750000
0.38850000
0.38550000
0.37650000
0.36700000
0.36000000
0.36050000
0.36100000
0.36200000
0.36200000
0.35150000
0.35500000
0.36700000
0.37100000
0.37150000
0.37350000
0.38300000
0.37950000
0.38400000
0.39100000
0.38050000
0.37600000
0.37950000
0.37600000
0.36050000
0.35250000
0.34900000
0.34600000
0.34100000
0.34600000
0.34850000
0.35500000
0.36150000
0.36600000
0.37450000
0.37600000
0.39100000
0.39650000
0.39700000
0.39250000
0.39150000
0.38900000
0.36950000
0.36000000
0.35600000
0.34850000
0.32950000
0.31800000
0.31150000
0.30850000
0.30350000
0.29550000
0.30800000
0.31950000
0.33050000
0.34300000
0.35650000
0.37050000
0.38600000
0.39550000
0.40050000
0.40950000
0.39900000
0.39500000
0.39600000
0.37800000
0.36200000
0.35400000
0.33750000
0.32800000
0.32100000
0.30550000
0.29000000
0.27600000
0.26900000
0.25900000
0.25350000
0.25150000
0.24250000
0.22100000
0.21950000
0.22100000
0.20350000
0.18250000
0.15000000
0.12700000
0.10250000
0.08400000
0.07850000
0.07400000
0.07500000
0.07900000
0.07600000
0.06000000
0.04250000
0.03350000
0.02350000
0.01400000
-0.00150000
-0.03100000
-0.04350000
-0.03300000
-0.03600000
-0.05300000
-0.06200000
-0.07800000
-0.09250000
-0.09650000
-0.10400000
-0.10800000
-0.12800000
-0.15450000
-0.16050000
-0.16050000
-0.14400000
-0.14300000
-0.16750000
-0.17800000
-0.20250000
-0.22950000
-0.23900000
-0.26100000
-0.29050000
-0.32250000
-0.35350000
-0.38300000
-0.41600000
-0.42250000
-0.42250000
-0.41400000
-0.40500000
-0.40250000
-0.37450000
-0.36150000
-0.34550000
-0.31450000
-0.29400000
-0.27700000
-0.26700000
-0.26150000
-0.25350000
-0.25450000
-0.25600000
-0.24800000
-0.24700000
-0.23200000
-0.20950000
-0.19650000
-0.18850000
-0.19250000
-0.19200000
-0.19600000
-0.20550000
-0.20050000
-0.20300000
-0.20400000
-0.19400000
-0.19550000
-0.20450000
-0.22200000
-0.23100000
-0.23600000
-0.24000000
-0.23300000
-0.23300000
-0.23250000
-0.22900000
-0.21600000
-0.19700000
-0.17850000
-0.15800000
-0.15500000
-0.14800000
-0.12350000
-0.09700000
-0.06500000
-0.03400000
-0.01950000
-0.00250000
0.01150000
0.02900000
0.04500000
0.04650000
0.05250000
0.06200000
0.06650000
0.07350000
0.08250000
0.08450000
0.10350000
0.12850000
0.15400000
0.17150000
0.19050000
0.22450000
0.25600000
0.28450000
0.30100000
0.32000000
0.33350000
0.35100000
0.36500000
0.36850000
0.37600000
0.37850000
0.38100000
0.37700000
0.37300000
0.37500000
0.37800000
0.38500000
0.39050000
0.39250000
0.41000000
0.42700000
0.44100000
0.45700000
0.45600000
0.46100000
0.46650000
0.46600000
0.46550000
0.46600000
0.46650000
0.46200000
0.44950000
0.43700000
0.43150000
0.42600000
0.42850000
0.42450000
0.42400000
0.42750000
0.43050000
0.43800000
0.44600000
0.45750000
0.45550000
0.46250000
0.46350000
0.46400000
0.47850000
0.47700000
0.47050000
0.45950000
0.44950000
0.44150000
0.43350000
0.42550000
0.42550000
0.42550000
0.41950000
0.41800000
0.42500000
0.44500000
0.45400000
0.45200000
0.45150000
0.44950000
0.44400000
0.43750000
0.43500000
0.43200000
0.42550000
0.41750000
0.41400000
0.40400000
0.40000000
0.40100000
0.40050000
0.40350000
0.40300000
0.40450000
0.41000000
0.41850000
0.42600000
0.42700000
0.43300000
0.44100000
0.44100000
0.44050000
0.44350000
0.44450000
0.42950000
0.41450000
0.40850000
0.40250000
0.40200000
0.40100000
0.40850000
0.40950000
0.41450000
0.43150000
0.44400000
0.46900000
0.49650000
0.51150000
0.51900000
0.53900000
0.55400000
0.55850000
0.57150000
0.57550000
0.57100000
0.56700000
0.56500000
0.55450000
0.55050000
0.55350000
0.55100000
0.54800000
0.54450000
0.55350000
0.57300000
0.58150000
0.58650000
0.59700000
0.60050000
0.60100000
0.60150000
0.60500000
0.60700000
0.60700000
0.60650000
0.60800000
0.60900000
0.60100000
0.60300000
0.60950000
0.61350000
0.61750000
0.62500000
0.63450000
0.64400000
0.64900000
0.65400000
0.67050000
0.67750000
0.68400000
0.68650000
0.68850000
0.68800000
0.68650000
0.68750000
0.68150000
0.67300000
0.66150000
0.66050000
0.66050000
0.66600000
0.67300000
0.67650000
0.68550000
0.69850000
0.70400000
0.71150000
0.72200000
0.72250000
0.73250000
0.73350000
0.73750000
0.74000000
0.73450000
0.73450000
0.73200000
0.73150000
0.72400000
0.72100000
0.71250000
0.71450000
0.71600000
0.71150000
0.71550000
0.71800000
0.72450000
0.73350000
0.74650000
0.74650000
0.75200000
0.76000000
0.75800000
0.75950000
0.75750000
0.75150000
0.74250000
0.73500000
0.72550000
0.72450000
0.72300000
0.72100000
0.72100000
0.72200000
0.72350000
0.73000000
0.73850000
0.73950000
0.74800000
0.75000000
0.75050000
0.75250000
0.75200000
0.75400000
0.75400000
0.74650000
0.73900000
0.73350000
0.72600000
0.72500000
0.71700000
0.71550000
0.71600000
0.71400000
0.71850000
0.72400000
0.72950000
0.73250000
0.74050000
0.74250000
0.74700000
0.74350000
0.74250000
0.74800000
0.74100000
0.73350000
0.72550000
0.71650000
0.70800000
0.70500000
0.69800000
0.69900000
0.69900000
0.68750000
0.68600000
0.69150000
0.69850000
0.69800000
0.70200000
0.70650000
0.70900000
0.70950000
0.70450000
0.70050000
0.69400000
0.68250000
0.67150000
0.66100000
0.65250000
0.64750000
0.64200000
0.64200000
0.63750000
0.63500000
0.63250000
0.63350000
0.64200000
0.64550000
0.64950000
0.64800000
0.65150000
0.64500000
0.63800000
0.63850000
0.63300000
0.62600000
0.61250000
0.60050000
0.58650000
0.57700000
0.57050000
0.57000000
0.56850000
0.56550000
0.56800000
0.57200000
0.57800000
0.58000000
0.57800000
0.58000000
0.58200000
0.57300000
0.57050000
0.56500000
0.55850000
0.54800000
0.53650000
0.52850000
0.51800000
0.51250000
0.50450000
0.49900000
0.49800000
0.49700000
0.50000000
0.50650000
0.50650000
0.50850000
0.51200000
0.51300000
0.51850000
0.51650000
0.51600000
0.51750000
0.51250000
0.49950000
0.48500000
0.47700000
0.47000000
0.46950000
0.46900000
0.47000000
0.46600000
0.46000000
0.46000000
0.46550000
0.46950000
0.47750000
0.48950000
0.48600000
0.49050000
0.48950000
0.48400000
0.48750000
0.48300000
0.47550000
0.47250000
0.46350000
0.44900000
0.44400000
0.43850000
0.44300000
0.44250000
0.44050000
0.44150000
0.44350000
0.45600000
0.46500000
0.46900000
0.46650000
0.46900000
0.47050000
0.47000000
0.46900000
0.46400000
0.45600000
0.44750000
0.44100000
0.43450000
0.43400000
0.43250000
0.43650000
0.43700000
0.43050000
0.43500000
0.44250000
0.44800000
0.45450000
0.45950000
0.46000000
0.46350000
0.46300000
0.46200000
0.46850000
0.46800000
0.45800000
0.45050000
0.44200000
0.43250000
0.43150000
0.42800000
0.43050000
0.43100000
0.42700000
0.42750000
0.43650000
0.44700000
0.45100000
0.45800000
0.45850000
0.45800000
0.46000000
0.46150000
0.46200000
0.45600000
0.44250000
0.43850000
0.43700000
0.42950000
0.42700000
0.42150000
0.42250000
0.42150000
0.41900000
0.42550000
0.43250000
0.43750000
0.44400000
0.45350000
0.45350000
0.44650000
0.44900000
0.45500000
0.45200000
0.44600000
0.43550000
0.42250000
0.41550000
0.40900000
0.40850000
0.40700000
0.40950000
0.41000000
0.40650000
0.41350000
0.41950000
0.42450000
0.43300000
0.44150000
0.44000000
0.43400000
0.43300000
0.43950000
0.43900000
0.43050000
0.42350000
0.41450000
0.40700000
0.40050000
0.40000000
0.39700000
0.39550000
0.38950000
0.38850000
0.39700000
0.40350000
0.40900000
0.41700000
0.42450000
0.42850000
0.43050000
0.42750000
0.42850000
0.42800000
0.42600000
0.41950000
0.41400000
0.40450000
0.39200000
0.38750000
0.38250000
0.38800000
0.38550000
0.38600000
0.39050000
0.39150000
0.39700000
0.40400000
0.41400000
0.41900000
0.42050000
0.41300000
0.41500000
0.41950000
0.41200000
0.40650000
0.40650000
0.39950000
0.38750000
0.38550000
0.38350000
0.38400000
0.38200000
0.38100000
0.38750000
0.39500000
0.40250000
0.41400000
0.41750000
0.41850000
0.42100000
0.41300000
0.41750000
0.42150000
0.41700000
0.40550000
0.39300000
0.38800000
0.38200000
0.37900000
0.37450000
0.37450000
0.37150000
0.36950000
0.37450000
0.38350000
0.39350000
0.40250000
0.41400000
0.41150000
0.41450000
0.41400000
0.41600000
0.41950000
0.41000000
0.40600000
0.39800000
0.38850000
0.38450000
0.38500000
0.37750000
0.37750000
0.38100000
0.37950000
0.38050000
0.38950000
0.40200000
0.40550000
0.41450000
0.41550000
0.41400000
0.41300000
0.41050000
0.41450000
0.41350000
0.40750000
0.40150000
0.39500000
0.39150000
0.39300000
0.38750000
0.38500000
0.38150000
0.37850000
0.38000000
0.38650000
0.39750000
0.40300000
0.41600000
0.42100000
0.42100000
0.42100000
0.41700000
0.41850000
0.41300000
0.41050000
0.40550000
0.39450000
0.38600000
0.38550000
0.38550000
0.38750000
0.38800000
0.38650000
0.39000000
0.39550000
0.40600000
0.41750000
0.42900000
0.42800000
0.42500000
0.42250000
0.41550000
0.41850000
0.42200000
0.42000000
0.41450000
0.40400000
0.39600000
0.39350000
0.39000000
0.39350000
0.39450000
0.39400000
0.39700000
0.40300000
0.41000000
0.41800000
0.42950000
0.43000000
0.43300000
0.43250000
0.43150000
0.43200000
0.42950000
0.42750000
0.42000000
0.41050000
0.40150000
0.39700000
0.39300000
0.39850000
0.40350000
0.40350000
0.40150000
0.40450000
0.41400000
0.42200000
0.42900000
0.43300000
0.43200000
0.42750000
0.43150000
0.43250000
0.43200000
0.42550000
0.41950000
0.41300000
0.40150000
0.39700000
0.39400000
0.39750000
0.39300000
0.39250000
0.40150000
0.40700000
0.41050000
0.41800000
0.42800000
0.43150000
0.43650000
0.43750000
0.43350000
0.42950000
0.43150000
0.42400000
0.41250000
0.40550000
0.39550000
0.39450000
0.39350000
0.39500000
0.39500000
0.39300000
0.39650000
0.40500000
0.41300000
0.42000000
0.42850000
0.42950000
0.43050000
0.42800000
0.43200000
0.43250000
0.42400000
0.41600000
0.40600000
0.40250000
0.39750000
0.39500000
0.39450000
0.39800000
0.39200000
0.38600000
0.39100000
0.39950000
0.41150000
0.42150000
0.42950000
0.42800000
0.43500000
0.43600000
0.43350000
0.43700000
0.43300000
0.42950000
0.42050000
0.41050000
0.40300000
0.39800000
0.39150000
0.39350000
0.39200000
0.38550000
0.39100000
0.39900000
0.40650000
0.41550000
0.43100000
0.43150000
0.42700000
0.43050000
0.43650000
0.43800000
0.42650000
0.41950000
0.41900000
0.41200000
0.40350000
0.40050000
0.39700000
0.40000000
0.39900000
0.39800000
0.40350000
0.40850000
0.41600000
0.42450000
0.43150000
0.43300000
0.43450000
0.43450000
0.43550000
0.43950000
0.43100000
0.42300000
0.41950000
0.41050000
0.40300000
0.40000000
0.40100000
0.40200000
0.40000000
0.40000000
0.40150000
0.41300000
0.42200000
0.42750000
0.43750000
0.43900000
0.44200000
0.43750000
0.44050000
0.45250000
0.44650000
0.43750000
0.43250000
0.42200000
0.41100000
0.40650000
0.40350000
0.40600000
0.40550000
0.40050000
0.40650000
0.42050000
0.42800000
0.43550000
0.44500000
0.44550000
0.44700000
0.44100000
0.44150000
0.44650000
0.43850000
0.43250000
0.43350000
0.42750000
0.41750000
0.41500000
0.41150000
0.41400000
0.41400000
0.41250000
0.41800000
0.42900000
0.43750000
0.44450000
0.45150000
0.45350000
0.45500000
0.45450000
0.45550000
0.45850000
0.45750000
0.44250000
0.43550000
0.43250000
0.42500000
0.42500000
0.42400000
0.42650000
0.42150000
0.41850000
0.42650000
0.43250000
0.43650000
0.44450000
0.45550000
0.46050000
0.46300000
0.45850000
0.45600000
0.45600000
0.45450000
0.44350000
0.43400000
0.43000000
0.42150000
0.42050000
0.42000000
0.42150000
0.41950000
0.41700000
0.42200000
0.43000000
0.43900000
0.44750000
0.45450000
0.45550000
0.45850000
0.45600000
0.45800000
0.46050000
0.45950000
0.45500000
0.44300000
0.43800000
0.43050000
0.42750000
0.42650000
0.42700000
0.42600000
0.42400000
0.42850000
0.43950000
0.44800000
0.45000000
0.45600000
0.46050000
0.46100000
0.45950000
0.46100000
0.46000000
0.45750000
0.44850000
0.43650000
0.43250000
0.42700000
0.42100000
0.41700000
0.42050000
0.42000000
0.41850000
0.42400000
0.43300000
0.44150000
0.45100000
0.45950000
0.46050000
0.46250000
0.46300000
0.46300000
0.46050000
0.45200000
0.44300000
0.43250000
0.42600000
0.42150000
0.42200000
0.42400000
0.42600000
0.42100000
0.41800000
0.42400000
0.43250000
0.43850000
0.44250000
0.45100000
0.45250000
0.45500000
0.45450000
0.45650000
0.45850000
0.44850000
0.44300000
0.43450000
0.42600000
0.42050000
0.41550000
0.41300000
0.41650000
0.41900000
0.41700000
0.42000000
0.42700000
0.43400000
0.44150000
0.45000000
0.45400000
0.45800000
0.45650000
0.45800000
0.45500000
0.44550000
0.44050000
0.43300000
0.42400000
0.42100000
0.42200000
0.42100000
0.42150000
0.42050000
0.42200000
0.42650000
0.43400000
0.43700000
0.44100000
0.45100000
0.45400000
0.45550000
0.45100000
0.45300000
0.45500000
0.45100000
0.44750000
0.44050000
0.43050000
0.42600000
0.42650000
0.42250000
0.42600000
0.42250000
0.41650000
0.42000000
0.43050000
0.43950000
0.44400000
0.44850000
0.45200000
0.46100000
0.46400000
0.46550000
0.46150000
0.45200000
0.44000000
0.43350000
0.42700000
0.41650000
0.41650000
0.41500000
0.42250000
0.42200000
0.41900000
0.42300000
0.43350000
0.43850000
0.44000000
0.44750000
0.44600000
0.44900000
0.44600000
0.44900000
0.45350000
0.44900000
0.44050000
0.43250000
0.42350000
0.41400000
0.41650000
0.41500000
0.41500000
0.41650000
0.41400000
0.41550000
0.42450000
0.43400000
0.44300000
0.44850000
0.44300000
0.44400000
0.44150000
0.44250000
0.44650000
0.44450000
0.44050000
0.43100000
0.42100000
0.40900000
0.40550000
0.40900000
0.40900000
0.40650000
0.40850000
0.41050000
0.41650000
0.42350000
0.43550000
0.44650000
0.44650000
0.44900000
0.44500000
0.44650000
0.44900000
0.44250000
0.43450000
0.42600000
0.42000000
0.41450000
0.41300000
0.41250000
0.42050000
0.42000000
0.41550000
0.41950000
0.42350000
0.42950000
0.43800000
0.44150000
0.44300000
0.44850000
0.44550000
0.44400000
0.44450000
0.44350000
0.43600000
0.42800000
0.42700000
0.41800000
0.41000000
0.41000000
0.41450000
0.41400000
0.41200000
0.41500000
0.42250000
0.43050000
0.43550000
0.44150000
0.44300000
0.44700000
0.44700000
0.44650000
0.44900000
0.44100000
0.43050000
0.42400000
0.42000000
0.41350000
0.40850000
0.40650000
0.40600000
0.40500000
0.40500000
0.40900000
0.42050000
0.42600000
0.43150000
0.44650000
0.45300000
0.45500000
0.45200000
0.45000000
0.45300000
0.45000000
0.44250000
0.43800000
0.43050000
0.42150000
0.41750000
0.41450000
0.41250000
0.40650000
0.40900000
0.41550000
0.42850000
0.43650000
0.44050000
0.44800000
0.44950000
0.45500000
0.45300000
0.45100000
0.45300000
0.44850000
0.44050000
0.43000000
0.42150000
0.41850000
0.41550000
0.41100000
0.41150000
0.40950000
0.41000000
0.41800000
0.42650000
0.43850000
0.44850000
0.45600000
0.45950000
0.45800000
0.45500000
0.45550000
0.45400000
0.44500000
0.44000000
0.43650000
0.42650000
0.42200000
0.41500000
0.40550000
0.41300000
0.41350000
0.41300000
0.41900000
0.42550000
0.43500000
0.44600000
0.45300000
0.44850000
0.44850000
0.44600000
0.44650000
0.44900000
0.44900000
0.44200000
0.43200000
0.42400000
0.41450000
0.41100000
0.40600000
0.41000000
0.41900000
0.42300000
0.42550000
0.42650000
0.42800000
0.43200000
0.42950000
0.42700000
0.42800000
0.42750000
0.42500000
0.41050000
0.39750000
0.38350000
0.37350000
0.36000000
0.34300000
0.33350000
0.31950000
0.31500000
0.31950000
0.32800000
0.33200000
0.33150000
0.33150000
0.34400000
0.35150000
0.34350000
0.34000000
0.31950000
0.30100000
0.28200000
0.25900000
0.24500000
0.23750000
0.22200000
0.19950000
0.20150000
0.18850000
0.16200000
0.13500000
0.13200000
0.15750000
0.17750000
0.19850000
0.19450000
0.17800000
0.16500000
0.15900000
0.15300000
0.15100000
0.15350000
0.14600000
0.14500000
0.14550000
0.13400000
0.11100000
0.08550000
0.05650000
0.03000000
-0.00450000
-0.04500000
-0.07300000
-0.09100000
-0.10450000
-0.09900000
-0.07700000
-0.05950000
-0.03600000
-0.01850000
0.00450000
0.03250000
0.04150000
0.04650000
0.06650000
0.09800000
0.12500000
0.15250000
0.17600000
0.19850000
0.22450000
0.24650000
0.25850000
0.27300000
0.29100000
0.31400000
0.33550000
0.34400000
0.35800000
0.37350000
0.39200000
0.41500000
0.43050000
0.43350000
0.43350000
0.42500000
0.41450000
0.41200000
0.41300000
0.41650000
0.41500000
0.42400000
0.43550000
0.44600000
0.45700000
0.46150000
0.46500000
0.46650000
0.47200000
0.47400000
0.47850000
0.48400000
0.47650000
0.46600000
0.45650000
0.44550000
0.43850000
0.43350000
0.43150000
0.43200000
0.42750000
0.43050000
0.43850000
0.45000000
0.45900000
0.46450000
0.46900000
0.47050000
0.48150000
0.48150000
0.48550000
0.48950000
0.48300000
0.47950000
0.47300000
0.46100000
0.45250000
0.45100000
0.44600000
0.44600000
0.44450000
0.44300000
0.44800000
0.46050000
0.46600000
0.47000000
0.47900000
0.48100000
0.48300000
0.48200000
0.48150000
0.47900000
0.47250000
0.46500000
0.45900000
0.44900000
0.44100000
0.44450000
0.44300000
0.44550000
0.44150000
0.43900000
0.44500000
0.44950000
0.45650000
0.46500000
0.47500000
0.47400000
0.47400000
0.47250000
0.47200000
0.47400000
0.46950000
0.46350000
0.45600000
0.44500000
0.43350000
0.43000000
0.42600000
0.42800000
0.42550000
0.42300000
0.43250000
0.44000000
0.44650000
0.45650000
0.46250000
0.45750000
0.45700000
0.45850000
0.45900000
0.45900000
0.45550000
0.44750000
0.43900000
0.43050000
0.42200000
0.42050000
0.41750000
0.41850000
0.41450000
0.40600000
0.41350000
0.42400000
0.42900000
0.43800000
0.44800000
0.45250000
0.45100000
0.44150000
0.44450000
0.44800000
0.44200000
0.43300000
0.42300000
0.41500000
0.40950000
0.40850000
0.40750000
0.41200000
0.41250000
0.40750000
0.41200000
0.42250000
0.42950000
0.43450000
0.44100000
0.44850000
0.45200000
0.45200000
0.45600000
0.45100000
0.44150000
0.43650000
0.43250000
0.42450000
0.41500000
0.41800000
0.42100000
0.42200000
0.42100000
0.41550000
0.42250000
0.43500000
0.44150000
0.45400000
0.46000000
0.46250000
0.46550000
0.46550000
0.46800000
0.46650000
0.46600000
0.45950000
0.45400000
0.44600000
0.43800000
0.43850000
0.43700000
0.43950000
0.43950000
0.43800000
0.44100000
0.45350000
0.45900000
0.46250000
0.47550000
0.48150000
0.48250000
0.48100000
0.48350000
0.48700000
0.48650000
0.47600000
0.46700000
0.46200000
0.45800000
0.45900000
0.45750000
0.46100000
0.45850000
0.45600000
0.45800000
0.46900000
0.48100000
0.48950000
0.50000000
0.50100000
0.50250000
0.50100000
0.50250000
0.50550000
0.49950000
0.49150000
0.48500000
0.47700000
0.47200000
0.47700000
0.47950000
0.48150000
0.48400000
0.48900000
0.49250000
0.49950000
0.51100000
0.52350000
0.53050000
0.52750000
0.52550000
0.52950000
0.53700000
0.53850000
0.53850000
0.53100000
0.52350000
0.52150000
0.51400000
0.51050000
0.51000000
0.51650000
0.51650000
0.51350000
0.52350000
0.53200000
0.53950000
0.54900000
0.55950000
0.56900000
0.56900000
0.56450000
0.56500000
0.56550000
0.56550000
0.55750000
0.55250000
0.55100000
0.54400000
0.54300000
0.53900000
0.54300000
0.54450000
0.54050000
0.53750000
0.53800000
0.55250000
0.56400000
0.57250000
0.57600000
0.57950000
0.58350000
0.58550000
0.58650000
0.58400000
0.57400000
0.57200000
0.56350000
0.55400000
0.55500000
0.54800000
0.55250000
0.55400000
0.55500000
0.56000000
0.56500000
0.57400000
0.58200000
0.59000000
0.58900000
0.59400000
0.59750000
0.59800000
0.59850000
0.58600000
0.57750000
0.57000000
0.56250000
0.55450000
0.54550000
0.54400000
0.54350000
0.54500000
0.54400000
0.55300000
0.55950000
0.55800000
0.56900000
0.57000000
0.57200000
0.57400000
0.56050000
0.56050000
0.55800000
0.54850000
0.53950000
0.53100000
0.52150000
0.51100000
0.51050000
0.50250000
0.49550000
0.49450000
0.49850000
0.50100000
0.49650000
0.49550000
0.51000000
0.52550000
0.52850000
0.53200000
0.52950000
0.52500000
0.52500000
0.52150000
0.51100000
0.50100000
0.49300000
0.48800000
0.47900000
0.47500000
0.48200000
0.47800000
0.47750000
0.48250000
0.48450000
0.48300000
0.48550000
0.49650000
0.50250000
0.50000000
0.49700000
0.49050000
0.48850000
0.48650000
0.47350000
0.46700000
0.45450000
0.44650000
0.44050000
0.42800000
0.43550000
0.44550000
0.45150000
0.45500000
0.45950000
0.46350000
0.47050000
0.47900000
0.48100000
0.48800000
0.48650000
0.49000000
0.49600000
0.48850000
0.47550000
0.46850000
0.45900000
0.44150000
0.43400000
0.43600000
0.44400000
0.43550000
0.42700000
0.43100000
0.43950000
0.44650000
0.45000000
0.46350000
0.46950000
0.46950000
0.46800000
0.46850000
0.46350000
0.45800000
0.44950000
0.43800000
0.44050000
0.44100000
0.43150000
0.42800000
0.43250000
0.42900000
0.43250000
0.43500000
0.44950000
0.46450000
0.46750000
0.47950000
0.48250000
0.47900000
0.46750000
0.46650000
0.47200000
0.46400000
0.44900000
0.44250000
0.43350000
0.42500000
0.42300000
0.41650000
0.42250000
0.42200000
0.42600000
0.43500000
0.44100000
0.44950000
0.45400000
0.46100000
0.46400000
0.46150000
0.46000000
0.47250000
0.47850000
0.47800000
0.47350000
0.45950000
0.44750000
0.43950000
0.43700000
0.43500000
0.43800000
0.42950000
0.42050000
0.43850000
0.45250000
0.45650000
0.45700000
0.45650000
0.46450000
0.47200000
0.47500000
0.47750000
0.47600000
0.47100000
0.46700000
0.46400000
0.45400000
0.44000000
0.43400000
0.44350000
0.45050000
0.44650000
0.44700000
0.44900000
0.46000000
0.46450000
0.46900000
0.47800000
0.48150000
0.48700000
0.48600000
0.49250000
0.49000000
0.48500000
0.48300000
0.47600000
0.47200000
0.46450000
0.45650000
0.45200000
0.45900000
0.46100000
0.45600000
0.46050000
0.46950000
0.47550000
0.48500000
0.48400000
0.48050000
0.49000000
0.48800000
0.49000000
0.49350000
0.48600000
0.47650000
0.47700000
0.47100000
0.46150000
0.46050000
0.45500000
0.45650000
0.45700000
0.45800000
0.46050000
0.47050000
0.47950000
0.49350000
0.50200000
0.50100000
0.51500000
0.51650000
0.51300000
0.51250000
0.51250000
0.50800000
0.49750000
0.49050000
0.48100000
0.47550000
0.47350000
0.48300000
0.47600000
0.46150000
0.47200000
0.48350000
0.48850000
0.49750000
0.49500000
0.49350000
0.50500000
0.50700000
0.51750000
0.52300000
0.51400000
0.50150000
0.49550000
0.48750000
0.48750000
0.48950000
0.48350000
0.48800000
0.48150000
0.47550000
0.48250000
0.49450000
0.50050000
0.50900000
0.51950000
0.52450000
0.52050000
0.51450000
0.53100000
0.53150000
0.51900000
0.52000000
0.51750000
0.50850000
0.49400000
0.48300000
0.48500000
0.49150000
0.48450000
0.47750000
0.48250000
0.49800000
0.50300000
0.50100000
0.51300000
0.50950000
0.51050000
0.51500000
0.52250000
0.53000000
0.52200000
0.52100000
0.51800000
0.51200000
0.50750000
0.50050000
0.49750000
0.50050000
0.50050000
0.50000000
0.50100000
0.51400000
0.52450000
0.52950000
0.54100000
0.54550000
0.53900000
0.53800000
0.54950000
0.54450000
0.53450000
0.52850000
0.52400000
0.51200000
0.50150000
0.50600000
0.50350000
0.50250000
0.49700000
0.48850000
0.49150000
0.50250000
0.51750000
0.52100000
0.52250000
0.53650000
0.53650000
0.53900000
0.54650000
0.55250000
0.55300000
0.54100000
0.53800000
0.52650000
0.51600000
0.51800000
0.52800000
0.52300000
0.50850000
0.51650000
0.52600000
0.52500000
0.52550000
0.52650000
0.53050000
0.53700000
0.54350000
0.54900000
0.54900000
0.54400000
0.53850000
0.52750000
0.51950000
0.52200000
0.51550000
0.50800000
0.50400000
0.50300000
0.50300000
0.50600000
0.51100000
0.51950000
0.53400000
0.54550000
0.54600000
0.54950000
0.55650000
0.55700000
0.56250000
0.55700000
0.54850000
0.54200000
0.53450000
0.52350000
0.50850000
0.50900000
0.51150000
0.50950000
0.50350000
0.49300000
0.49800000
0.51700000
0.52050000
0.52600000
0.53700000
0.54600000
0.54600000
0.54000000
0.54750000
0.54800000
0.53850000
0.52700000
0.52700000
0.52700000
0.52650000
0.52800000
0.51800000
0.51750000
0.51300000
0.51300000
0.52000000
0.52550000
0.52750000
0.53200000
0.53400000
0.53050000
0.53700000
0.53650000
0.54150000
0.54300000
0.53550000
0.52500000
0.51450000
0.51400000
0.51050000
0.50300000
0.50350000
0.51350000
0.51800000
0.51750000
0.51500000
0.52200000
0.52750000
0.53550000
0.54550000
0.54200000
0.54550000
0.54650000
0.55650000
0.56000000
0.54650000
0.53150000
0.51650000
0.50750000
0.49900000
0.50400000
0.50600000
0.50900000
0.51100000
0.51150000
0.52900000
0.53850000
0.53500000
0.54600000
0.55650000
0.55750000
0.56250000
0.56000000
0.55750000
0.55900000
0.55250000
0.53450000
0.52400000
0.51400000
0.50350000
0.50850000
0.51250000
0.51700000
0.51700000
0.51350000
0.51300000
0.52650000
0.54550000
0.54450000
0.54100000
0.54750000
0.55200000
0.54600000
0.54800000
0.55600000
0.55800000
0.54850000
0.53700000
0.53200000
0.52550000
0.52350000
0.52150000
0.52550000
0.52300000
0.51800000
0.52250000
0.53250000
0.54100000
0.53750000
0.54300000
0.55350000
0.55500000
0.55050000
0.54400000
0.54350000
0.54450000
0.53950000
0.52800000
0.51800000
0.52100000
0.51500000
0.51150000
0.51900000
0.51400000
0.51600000
0.52150000
0.53500000
0.54600000
0.54750000
0.55150000
0.55700000
0.55800000
0.55600000
0.56150000
0.55850000
0.54850000
0.53650000
0.53350000
0.53100000
0.51900000
0.51050000
0.51350000
0.52450000
0.51550000
0.51250000
0.52150000
0.53200000
0.54000000
0.53750000
0.54150000
0.54550000
0.54850000
0.54750000
0.54750000
0.53800000
0.53550000
0.53650000
0.52800000
0.52550000
0.51400000
0.51150000
0.51350000
0.51250000
0.51200000
0.51200000
0.51600000
0.51900000
0.52500000
0.53650000
0.54400000
0.54650000
0.54850000
0.54550000
0.54900000
0.54700000
0.54300000
0.53700000
0.52800000
0.52200000
0.51600000
0.51400000
0.51450000
0.52000000
0.51650000
0.50900000
0.51250000
0.52150000
0.52550000
0.53500000
0.54500000
0.54700000
0.55200000
0.54650000
0.54950000
0.54750000
0.53850000
0.53650000
0.52800000
0.52200000
0.51900000
0.51400000
0.50950000
0.51300000
0.51000000
0.51000000
0.51600000
0.52150000
0.53100000
0.54200000
0.55150000
0.55150000
0.55200000
0.55100000
0.55250000
0.54600000
0.53450000
0.52900000
0.52600000
0.52150000
0.51150000
0.51100000
0.51100000
0.51400000
0.51550000
0.51800000
0.52650000
0.53200000
0.53400000
0.54150000
0.55150000
0.55800000
0.56250000
0.55550000
0.55800000
0.55750000
0.54900000
0.54550000
0.54150000
0.53350000
0.52500000
0.52100000
0.51700000
0.51900000
0.51650000
0.51700000
0.52200000
0.53050000
0.54350000
0.55150000
0.55500000
0.55450000
0.55600000
0.55600000
0.55950000
0.56300000
0.55350000
0.54200000
0.54000000
0.53250000
0.52100000
0.51700000
0.52050000
0.52650000
0.52250000
0.52350000
0.52700000
0.52950000
0.53600000
0.54500000
0.55250000
0.55400000
0.55600000
0.55400000
0.55800000
0.56250000
0.55350000
0.54500000
0.54150000
0.53000000
0.52450000
0.52550000
0.51850000
0.51850000
0.51750000
0.51750000
0.52200000
0.52900000
0.53750000
0.54350000
0.55450000
0.56000000
0.55950000
0.55750000
0.55500000
0.55900000
0.55500000
0.54000000
0.53550000
0.52950000
0.52100000
0.51600000
0.51250000
0.51900000
0.52150000
0.52150000
0.52350000
0.52700000
0.53150000
0.53750000
0.54200000
0.54150000
0.54500000
0.54550000
0.55000000
0.55350000
0.54650000
0.53200000
0.52550000
0.52000000
0.51000000
0.50550000
0.50350000
0.50850000
0.50600000
0.50300000
0.50450000
0.51000000
0.51700000
0.53100000
0.54300000
0.53900000
0.53850000
0.53700000
0.53500000
0.53550000
0.53100000
0.51800000
0.51000000
0.50750000
0.50300000
0.50000000
0.49600000
0.49700000
0.49700000
0.50050000
0.50200000
0.50850000
0.51950000
0.52650000
0.53050000
0.52900000
0.53050000
0.52750000
0.52700000
0.52850000
0.52650000
0.51400000
0.50450000
0.50000000
0.49700000
0.49950000
0.49700000
0.49500000
0.48500000
0.48000000
0.48100000
0.49050000
0.49600000
0.49550000
0.50250000
0.50200000
0.49400000
0.48450000
0.47700000
0.46900000
0.46150000
0.45700000
0.44900000
0.43100000
0.41650000
0.40550000
0.39150000
0.38400000
0.38400000
0.38250000
0.38250000
0.38950000
0.39800000
0.40850000
0.41100000
0.41650000
0.42400000
0.43300000
0.44750000
0.45700000
0.45050000
0.43650000
0.42300000
0.39450000
0.38000000
0.37650000
0.36400000
0.35300000
0.34000000
0.34000000
0.34200000
0.33150000
0.31950000
0.31650000
0.31450000
0.31450000
0.32650000
0.31750000
0.30250000
0.29000000
0.27600000
0.26600000
0.24750000
0.23450000
0.23450000
0.24000000
0.25600000
0.26300000
0.24150000
0.21100000
0.18650000
0.17000000
0.14050000
0.11250000
0.09150000
0.06200000
0.04450000
0.02900000
0.02900000
0.04950000
0.07500000
0.10100000
0.12250000
0.14850000
0.17350000
0.19250000
0.20550000
0.22500000
0.24350000
0.25750000
0.28400000
0.30700000
0.32100000
0.34700000
0.37050000
0.38150000
0.38800000
0.39700000
0.40900000
0.41650000
0.41950000
0.41900000
0.42300000
0.41950000
0.42400000
0.43550000
0.44300000
0.45550000
0.45900000
0.46650000
0.47400000
0.48200000
0.49200000
0.50450000
0.51400000
0.51350000
0.51800000
0.51950000
0.51950000
0.52350000
0.51850000
0.50550000
0.49900000
0.48600000
0.47650000
0.47850000
0.47900000
0.47850000
0.47400000
0.47450000
0.48300000
0.49200000
0.49350000
0.49750000
0.50550000
0.50950000
0.51400000
0.51350000
0.51700000
0.51800000
0.51800000
0.51200000
0.50700000
0.49250000
0.47700000
0.47950000
0.47550000
0.47750000
0.47850000
0.48100000
0.48850000
0.49600000
0.49950000
0.50350000
0.51000000
0.51150000
0.51800000
0.51550000
0.51500000
0.51150000
0.50300000
0.49300000
0.48650000
0.47750000
0.46500000
0.46700000
0.46600000
0.46650000
0.46650000
0.46800000
0.47700000
0.48250000
0.48300000
0.49150000
0.50000000
0.50100000
0.50400000
0.50500000
0.50600000
0.50500000
0.50250000
0.49450000
0.48950000
0.48050000
0.46550000
0.46300000
0.46350000
0.46450000
0.46400000
0.46550000
0.47050000
0.47850000
0.48350000
0.48950000
0.49700000
0.49800000
0.49950000
0.49950000
0.50450000
0.50000000
0.49350000
0.48750000
0.47850000
0.47300000
0.46200000
0.45650000
0.45950000
0.45850000
0.45300000
0.45150000
0.45400000
0.46300000
0.46900000
0.47650000
0.48500000
0.48800000
0.48600000
0.48250000
0.48500000
0.48500000
0.47850000
0.46850000
0.46600000
0.45950000
0.44700000
0.44000000
0.43850000
0.44350000
0.44000000
0.43850000
0.44300000
0.45150000
0.45650000
0.46500000
0.47150000
0.47250000
0.47650000
0.47500000
0.47950000
0.47850000
0.47100000
0.46250000
0.45700000
0.44700000
0.44000000
0.43950000
0.43700000
0.44000000
0.43600000
0.43500000
0.44350000
0.45250000
0.45800000
0.47000000
0.47650000
0.47900000
0.48300000
0.48350000
0.48450000
0.47900000
0.47600000
0.47050000
0.46650000
0.45950000
0.45300000
0.45000000
0.44900000
0.45400000
0.45200000
0.45350000
0.45850000
0.47000000
0.47950000
0.48850000
0.49900000
0.49700000
0.50000000
0.49900000
0.49750000
0.49850000
0.49550000
0.48950000
0.48600000
0.47600000
0.47100000
0.47150000
0.46750000
0.47100000
0.46850000
0.47050000
0.47650000
0.48650000
0.49600000
0.50350000
0.50750000
0.50400000
0.50750000
0.51050000
0.51300000
0.51250000
0.50950000
0.50450000
0.49800000
0.49200000
0.48750000
0.48350000
0.48000000
0.48600000
0.48650000
0.48650000
0.49350000
0.50100000
0.50700000
0.51800000
0.52450000
0.52600000
0.53000000
0.52650000
0.53250000
0.53350000
0.52750000
0.52450000
0.51900000
0.51100000
0.50600000
0.50650000
0.50250000
0.50400000
0.50500000
0.51100000
0.51800000
0.52500000
0.53400000
0.54150000
0.54900000
0.55500000
0.55800000
0.55650000
0.56150000
0.56250000
0.55850000
0.55150000
0.54350000
0.53550000
0.52800000
0.52800000
0.52450000
0.52650000
0.53150000
0.53250000
0.53900000
0.54850000
0.55250000
0.56050000
0.57200000
0.57750000
0.58050000
0.57850000
0.57950000
0.58000000
0.57800000
0.57350000
0.56500000
0.55900000
0.55300000
0.55200000
0.55000000
0.54650000
0.54950000
0.55300000
0.55650000
0.56550000
0.57300000
0.57850000
0.58350000
0.58850000
0.59050000
0.58950000
0.59200000
0.58900000
0.58350000
0.57400000
0.56650000
0.56100000
0.55250000
0.55000000
0.54350000
0.53600000
0.53250000
0.53250000
0.53600000
0.54250000
0.54800000
0.55550000
0.55950000
0.55900000
0.55950000
0.55700000
0.55600000
0.55350000
0.54600000
0.53550000
0.52850000
0.52450000
0.51350000
0.50600000
0.50300000
0.49550000
0.48950000
0.49000000
0.49500000
0.50100000
0.50850000
0.52000000
0.52650000
0.52950000
0.53000000
0.52400000
0.52550000
0.52600000
0.51800000
0.50750000
0.49900000
0.48800000
0.48200000
0.47950000
0.47300000
0.47300000
0.46700000
0.46500000
0.47100000
0.47700000
0.48350000
0.49350000
0.49900000
0.50300000
0.50600000
0.50200000
0.50400000
0.50250000
0.49350000
0.48300000
0.48000000
0.47250000
0.46700000
0.46050000
0.45200000
0.45350000
0.45050000
0.45850000
0.46300000
0.46450000
0.47400000
0.48150000
0.48300000
0.48350000
0.48250000
0.48000000
0.48850000
0.49100000
0.48450000
0.47200000
0.46600000
0.46100000
0.45450000
0.45050000
0.44500000
0.44750000
0.43950000
0.43700000
0.45000000
0.45300000
0.45850000
0.47250000
0.47900000
0.47850000
0.47950000
0.47900000
0.48000000
0.48000000
0.47700000
0.46700000
0.45900000
0.45250000
0.44450000
0.44400000
0.44500000
0.44450000
0.44050000
0.43850000
0.44250000
0.44650000
0.45300000
0.46250000
0.47200000
0.47500000
0.46950000
0.46800000
0.47300000
0.47350000
0.47050000
0.46350000
0.45750000
0.45000000
0.44350000
0.44150000
0.43900000
0.44200000
0.43800000
0.43200000
0.43900000
0.44900000
0.45700000
0.46600000
0.47550000
0.48050000
0.48200000
0.47850000
0.48250000
0.48200000
0.47450000
0.47150000
0.46450000
0.45600000
0.45300000
0.45050000
0.44750000
0.44650000
0.44350000
0.44050000
0.44600000
0.45850000
0.46550000
0.47450000
0.48300000
0.48450000
0.48700000
0.48600000
0.49100000
0.49350000
0.48600000
0.47750000
0.47200000
0.46450000
0.46000000
0.45900000
0.45650000
0.45800000
0.45250000
0.44950000
0.45500000
0.46600000
0.47200000
0.48250000
0.48850000
0.49000000
0.49400000
0.49100000
0.48950000
0.48500000
0.47850000
0.47150000
0.46600000
0.45850000
0.45250000
0.45150000
0.45250000
0.45200000
0.45050000
0.45100000
0.44950000
0.46000000
0.46450000
0.47150000
0.48050000
0.48250000
0.48650000
0.48650000
0.49050000
0.48900000
0.48250000
0.47150000
0.46650000
0.46000000
0.45200000
0.45150000
0.45050000
0.44800000
0.44500000
0.44550000
0.44650000
0.45600000
0.46400000
0.47100000
0.47800000
0.47950000
0.47700000
0.47200000
0.47650000
0.47700000
0.47450000
0.46800000
0.45850000
0.44650000
0.44200000
0.43950000
0.43650000
0.43950000
0.43550000
0.43650000
0.43850000
0.44850000
0.46000000
0.46450000
0.46950000
0.46850000
0.47000000
0.46600000
0.46500000
0.46850000
0.46800000
0.46100000
0.45350000
0.44200000
0.43300000
0.42850000
0.42800000
0.43150000
0.42750000
0.43000000
0.43200000
0.43850000
0.45150000
0.46050000
0.46500000
0.46750000
0.47000000
0.46850000
0.46900000
0.47050000
0.46450000
0.45500000
0.45050000
0.44100000
0.43500000
0.43450000
0.43150000
0.43300000
0.43150000
0.43100000
0.43700000
0.44150000
0.44800000
0.46200000
0.46850000
0.46700000
0.46950000
0.46850000
0.47400000
0.47600000
0.46900000
0.46450000
0.45800000
0.45200000
0.44250000
0.43950000
0.44000000
0.43750000
0.43450000
0.43700000
0.44350000
0.44650000
0.45400000
0.46650000
0.47700000
0.48050000
0.47950000
0.48050000
0.48000000
0.47600000
0.47250000
0.46700000
0.46350000
0.45650000
0.44450000
0.43900000
0.44200000
0.44650000
0.44650000
0.44400000
0.45250000
0.45700000
0.45650000
0.47150000
0.47900000
0.48400000
0.48750000
0.48500000
0.48600000
0.48350000
0.47800000
0.46850000
0.46200000
0.45400000
0.44800000
0.44500000
0.44750000
0.45400000
0.45100000
0.44850000
0.45200000
0.46250000
0.46250000
0.47150000
0.48350000
0.48500000
0.48750000
0.48550000
0.49000000
0.48400000
0.47900000
0.47450000
0.46700000
0.45850000
0.45300000
0.45300000
0.45100000
0.45250000
0.44650000
0.44450000
0.44850000
0.45600000
0.46000000
0.46950000
0.48300000
0.48250000
0.48450000
0.48400000
0.48250000
0.48300000
0.47500000
0.46750000
0.46250000
0.45100000
0.44450000
0.44250000
0.44100000
0.44350000
0.44050000
0.43850000
0.44750000
0.46050000
0.46150000
0.46200000
0.46850000
0.46800000
0.47200000
0.47500000
0.47500000
0.47450000
0.46900000
0.45900000
0.45300000
0.44450000
0.43700000
0.43250000
0.43200000
0.43750000
0.43700000
0.44000000
0.44250000
0.45050000
0.45450000
0.45600000
0.46600000
0.46650000
0.46900000
0.46800000
0.47000000
0.47400000
0.46600000
0.45650000
0.44750000
0.43400000
0.42750000
0.43200000
0.43400000
0.43400000
0.42750000
0.42450000
0.43300000
0.44500000
0.44850000
0.45000000
0.45450000
0.45800000
0.45900000
0.45850000
0.46250000
0.46050000
0.45750000
0.45450000
0.44700000
0.43850000
0.43000000
0.42700000
0.42750000
0.42800000
0.42150000
0.42550000
0.43500000
0.44150000
0.44550000
0.44750000
0.45700000
0.46050000
0.45900000
0.45900000
0.46300000
0.46550000
0.46000000
0.45200000
0.44650000
0.43750000
0.42850000
0.42750000
0.42700000
0.42600000
0.42500000
0.42350000
0.43000000
0.43700000
0.44200000
0.44950000
0.45550000
0.46150000
0.46350000
0.46150000
0.46150000
0.45850000
0.45300000
0.44700000
0.44050000
0.43350000
0.42650000
0.42400000
0.42550000
0.43050000
0.42850000
0.42250000
0.42350000
0.43100000
0.44000000
0.45050000
0.45100000
0.45400000
0.45800000
0.45200000
0.45800000
0.46000000
0.45200000
0.44500000
0.44150000
0.43400000
0.42850000
0.42600000
0.42400000
0.42650000
0.42200000
0.42200000
0.42500000
0.43400000
0.44350000
0.45000000
0.45050000
0.45300000
0.46150000
0.46050000
0.45850000
0.45550000
0.45250000
0.44550000
0.43900000
0.42900000
0.42100000
0.41950000
0.42300000
0.42450000
0.42150000
0.42050000
0.42500000
0.43550000
0.43750000
0.44650000
0.44900000
0.44700000
0.45250000
0.45300000
0.45500000
0.45200000
0.44800000
0.43750000
0.43100000
0.42350000
0.41600000
0.41700000
0.41550000
0.42000000
0.42100000
0.42150000
0.42850000
0.43300000
0.43300000
0.44450000
0.45000000
0.44850000
0.45500000
0.45250000
0.45300000
0.45250000
0.44700000
0.44050000
0.43550000
0.43150000
0.42800000
0.42700000
0.42400000
0.42300000
0.42000000
0.42150000
0.42300000
0.42800000
0.43500000
0.44550000
0.45000000
0.44850000
0.45550000
0.45350000
0.45450000
0.45550000
0.44750000
0.44150000
0.43650000
0.42550000
0.41800000
0.41650000
0.41750000
0.42200000
0.41700000
0.41450000
0.41650000
0.42350000
0.43200000
0.44300000
0.44650000
0.44250000
0.44750000
0.44750000
0.45150000
0.45200000
0.44300000
0.43600000
0.43000000
0.42200000
0.41350000
0.40950000
0.41050000
0.41200000
0.40900000
0.41600000
0.42150000
0.42600000
0.43150000
0.43550000
0.44150000
0.44050000
0.44100000
0.44500000
0.44950000
0.45350000
0.45000000
0.43950000
0.43350000
0.42650000
0.41850000
0.41450000
0.41400000
0.41350000
0.41150000
0.41450000
0.41750000
0.42150000
0.43000000
0.44300000
0.44900000
0.45050000
0.45000000
0.45050000
0.45500000
0.45350000
0.44300000
0.43400000
0.43100000
0.42450000
0.41750000
0.41050000
0.40750000
0.40700000
0.40400000
0.40700000
0.41550000
0.42250000
0.43100000
0.44000000
0.44200000
0.44800000
0.44400000
0.44200000
0.45150000
0.45000000
0.44450000
0.43800000
0.43100000
0.41900000
0.41550000
0.41400000
0.41200000
0.41650000
0.41050000
0.40750000
0.41600000
0.42400000
0.43250000
0.44350000
0.44650000
0.45150000
0.44700000
0.44300000
0.45250000
0.45050000
0.44700000
0.43900000
0.43300000
0.42750000
0.42500000
0.42700000
0.42500000
0.42850000
0.42600000
0.42050000
0.41650000
0.41750000
0.42250000
0.43700000
0.44650000
0.44850000
0.45450000
0.45400000
0.46050000
0.45900000
0.45250000
0.44750000
0.44250000
0.43750000
0.43350000
0.42850000
0.42200000
0.41950000
0.41350000
0.41400000
0.42350000
0.43000000
0.42900000
0.43950000
0.44600000
0.44850000
0.45400000
0.45200000
0.46200000
0.46700000
0.46250000
0.45400000
0.44550000
0.43400000
0.42450000
0.41750000
0.41500000
0.42150000
0.42150000
0.42400000
0.42850000
0.43550000
0.44300000
0.45000000
0.45450000
0.45750000
0.46050000
0.45400000
0.45650000
0.46200000
0.45600000
0.44850000
0.44200000
0.43200000
0.42750000
0.42750000
0.42500000
0.42500000
0.42350000
0.42550000
0.43100000
0.43650000
0.44250000
0.45550000
0.45950000
0.45900000
0.46050000
0.45400000
0.45250000
0.45650000
0.45850000
0.45550000
0.44800000
0.42750000
0.41350000
0.41000000
0.40100000
0.39700000
0.39550000
0.39600000
0.40050000
0.39900000
0.40150000
0.40750000
0.40450000
0.39750000
0.38750000
0.38100000
0.37800000
0.37400000
0.37000000
0.35800000
0.34900000
0.33900000
0.32700000
0.32650000
0.32900000
0.32700000
0.32000000
0.30650000
0.29550000
0.28550000
0.27100000
0.26550000
0.26500000
0.26100000
0.24350000
0.23950000
0.24050000
0.22000000
0.19300000
0.17200000
0.18350000
0.19400000
0.20150000
0.20350000
0.17650000
0.14800000
0.12950000
0.12550000
0.12500000
0.13150000
0.13800000
0.15350000
0.17700000
0.18700000
0.17900000
0.16000000
0.13250000
0.10200000
0.06350000
0.00800000
-0.02400000
-0.05150000
-0.07200000
-0.08200000
-0.09100000
-0.07650000
-0.05600000
-0.02750000
0.01000000
0.04750000
0.07850000
0.10200000
0.11600000
0.14500000
0.18300000
0.20850000
0.23250000
0.25050000
0.26850000
0.28000000
0.28350000
0.28100000
0.28400000
0.29250000
0.30300000
0.31600000
0.32750000
0.34700000
0.36800000
0.39300000
0.41750000
0.43900000
0.44900000
0.45450000
0.45650000
0.46200000
0.47100000
0.46400000
0.46650000
0.47050000
0.46550000
0.45850000
0.45700000
0.45800000
0.45950000
0.45800000
0.45300000
0.45650000
0.46450000
0.47300000
0.47100000
0.47850000
0.48700000
0.48650000
0.48950000
0.48700000
0.49000000
0.48700000
0.48150000
0.47700000
0.46800000
0.46050000
0.45600000
0.45800000
0.45850000
0.45950000
0.46200000
0.46900000
0.47800000
0.48800000
0.49400000
0.49800000
0.50300000
0.50700000
0.50700000
0.50500000
0.51050000
0.50600000
0.49700000
0.49400000
0.48900000
0.47900000
0.47300000
0.47050000
0.47150000
0.47400000
0.47350000
0.47450000
0.48050000
0.49050000
0.49300000
0.50050000
0.50850000
0.50900000
0.51150000
0.51300000
0.51250000
0.50500000
0.49100000
0.48800000
0.49000000
0.48250000
0.47650000
0.47550000
0.47750000
0.47950000
0.47650000
0.47300000
0.48000000
0.49200000
0.49800000
0.50550000
0.50600000
0.50650000
0.50700000
0.50400000
0.51150000
0.51300000
0.50250000
0.50000000
0.49800000
0.48450000
0.47900000
0.48000000
0.48050000
0.47750000
0.47250000
0.47250000
0.47800000
0.48450000
0.48750000
0.49800000
0.50050000
0.50500000
0.50300000
0.49950000
0.50650000
0.50350000
0.49400000
0.48350000
0.48350000
0.47550000
0.47100000
0.46900000
0.46400000
0.46250000
0.45550000
0.45750000
0.46250000
0.46700000
0.47100000
0.48550000
0.49650000
0.49800000
0.49600000
0.49500000
0.49750000
0.49100000
0.48250000
0.47050000
0.47050000
0.46550000
0.46300000
0.46400000
0.46200000
0.46300000
0.45700000
0.45900000
0.46550000
0.47400000
0.47850000
0.49050000
0.49650000
0.49950000
0.50600000
0.50500000
0.51000000
0.50800000
0.49950000
0.48800000
0.48150000
0.47400000
0.46850000
0.46550000
0.46500000
0.47400000
0.47550000
0.48350000
0.49650000
0.50550000
0.51350000
0.52450000
0.53200000
0.53600000
0.53700000
0.53600000
0.53700000
0.53500000
0.53100000
0.52050000
0.51300000
0.50900000
0.50250000
0.50050000
0.50050000
0.49950000
0.49900000
0.50100000
0.50250000
0.51350000
0.52950000
0.53700000
0.53800000
0.54250000
0.54550000
0.54600000
0.55300000
0.55050000
0.54450000
0.53250000
0.51550000
0.50800000
0.50250000
0.50050000
0.50250000
0.50700000
0.50550000
0.50350000
0.51350000
0.52700000
0.53100000
0.54000000
0.55100000
0.55150000
0.55500000
0.55850000
0.55900000
0.55950000
0.55950000
0.55400000
0.54300000
0.53250000
0.53200000
0.52800000
0.52150000
0.52300000
0.52400000
0.53050000
0.53850000
0.54200000
0.54700000
0.55600000
0.56550000
0.57400000
0.57100000
0.56650000
0.57100000
0.57350000
0.56600000
0.56150000
0.56000000
0.55100000
0.54650000
0.54650000
0.55600000
0.56350000
0.55800000
0.56150000
0.57300000
0.57900000
0.58700000
0.60000000
0.60550000
0.60600000
0.60550000
0.60250000
0.59700000
0.59250000
0.58900000
0.57450000
0.56550000
0.55950000
0.55800000
0.55850000
0.55450000
0.56200000
0.56900000
0.56900000
0.57200000
0.58300000
0.59050000
0.60150000
0.61400000
0.62050000
0.61400000
0.61500000
0.61800000
0.61150000
0.61150000
0.59950000
0.58800000
0.58300000
0.58050000
0.57550000
0.57050000
0.56400000
0.55100000
0.55400000
0.57400000
0.57650000
0.56200000
0.57200000
0.58750000
0.59000000
0.58400000
0.58250000
0.58600000
0.58200000
0.57500000
0.57050000
0.56150000
0.54150000
0.53750000
0.52950000
0.52400000
0.52300000
0.51100000
0.51000000
0.50700000
0.50950000
0.51700000
0.51950000
0.51950000
0.52400000
0.51850000
0.52050000
0.52700000
0.52000000
0.52250000
0.51500000
0.51200000
0.50250000
0.49200000
0.49300000
0.49600000
0.50000000
0.48750000
0.48150000
0.48250000
0.48400000
0.49000000
0.50250000
0.51050000
0.50700000
0.49800000
0.49850000
0.49950000
0.48800000
0.48100000
0.47500000
0.46700000
0.45750000
0.44900000
0.44350000
0.44700000
0.44450000
0.44450000
0.45100000
0.44850000
0.45450000
0.46100000
0.47550000
0.47500000
0.47750000
0.48250000
0.47950000
0.49000000
0.48250000
0.47350000
0.46700000
0.46300000
0.44950000
0.44150000
0.44450000
0.44150000
0.43950000
0.43600000
0.44100000
0.44150000
0.44650000
0.46150000
0.47600000
0.47950000
0.47650000
0.46950000
0.46750000
0.47300000
0.46850000
0.46500000
0.45200000
0.44100000
0.44250000
0.43350000
0.42600000
0.42950000
0.43450000
0.43000000
0.42800000
0.43150000
0.44000000
0.45150000
0.45450000
0.46200000
0.46350000
0.46250000
0.46050000
0.45700000
0.46050000
0.45550000
0.44400000
0.43750000
0.43200000
0.42550000
0.42050000
0.42300000
0.42100000
0.41450000
0.41400000
0.41550000
0.42550000
0.43800000
0.44700000
0.44800000
0.44950000
0.45600000
0.44900000
0.44500000
0.45200000
0.45400000
0.44600000
0.43400000
0.42750000
0.42600000
0.42150000
0.42700000
0.43150000
0.42450000
0.42900000
0.43550000
0.43850000
0.43650000
0.44400000
0.44800000
0.45300000
0.45350000
0.44650000
0.45350000
0.45150000
0.45100000
0.44300000
0.43100000
0.42350000
0.41000000
0.39750000
0.39650000
0.39800000
0.39700000
0.41700000
0.43100000
0.43100000
0.43550000
0.44800000
0.45500000
0.45200000
0.44500000
0.44400000
0.44500000
0.44600000
0.44500000
0.43500000
0.42950000
0.41850000
0.41700000
0.41700000
0.41200000
0.41750000
0.41350000
0.40950000
0.42400000
0.43700000
0.44200000
0.45600000
0.46250000
0.46550000
0.46950000
0.47000000
0.46750000
0.46050000
0.45550000
0.44450000
0.43700000
0.42850000
0.42550000
0.42250000
0.41450000
0.42100000
0.42400000
0.42500000
0.43450000
0.43250000
0.43400000
0.43850000
0.43650000
0.43550000
0.43200000
0.45200000
0.46000000
0.44350000
0.43300000
0.42600000
0.42100000
0.41700000
0.41900000
0.42200000
0.42650000
0.42100000
0.42200000
0.42800000
0.44300000
0.46450000
0.46350000
0.47300000
0.47650000
0.47650000
0.47750000
0.47300000
0.47250000
0.45950000
0.44500000
0.43650000
0.42900000
0.42350000
0.41300000
0.41300000
0.40950000
0.40450000
0.41800000
0.42400000
0.43000000
0.43700000
0.44850000
0.46250000
0.46400000
0.47500000
0.47600000
0.46050000
0.47100000
0.48100000
0.47500000
0.46700000
0.45300000
0.44500000
0.44800000
0.43750000
0.42000000
0.43150000
0.43100000
0.43200000
0.45300000
0.45550000
0.46050000
0.47200000
0.47950000
0.48250000
0.48300000
0.47850000
0.47600000
0.46800000
0.45600000
0.44900000
0.43550000
0.43350000
0.43700000
0.43350000
0.42800000
0.42500000
0.43250000
0.44000000
0.44650000
0.45350000
0.46150000
0.47500000
0.48150000
0.48750000
0.48450000
0.47900000
0.48350000
0.47750000
0.47050000
0.47050000
0.46600000
0.46100000
0.45400000
0.44800000
0.45850000
0.45350000
0.44650000
0.45850000
0.46000000
0.46200000
0.47150000
0.48400000
0.48950000
0.49000000
0.48400000
0.48100000
0.48350000
0.47950000
0.47150000
0.45750000
0.45750000
0.45800000
0.44650000
0.44550000
0.44700000
0.44450000
0.45300000
0.46150000
0.46750000
0.47800000
0.47900000
0.48650000
0.49150000
0.49200000
0.48750000
0.48400000
0.49100000
0.48900000
0.48400000
0.47550000
0.46250000
0.45050000
0.44900000
0.45300000
0.45900000
0.45900000
0.44750000
0.44750000
0.45750000
0.46900000
0.47450000
0.48050000
0.48050000
0.48400000
0.48650000
0.47850000
0.48550000
0.48300000
0.47700000
0.47150000
0.45800000
0.45550000
0.45750000
0.45200000
0.44850000
0.45050000
0.45250000
0.45950000
0.46350000
0.46600000
0.47500000
0.48650000
0.48800000
0.47900000
0.47950000
0.47750000
0.47650000
0.47150000
0.46000000
0.45750000
0.45700000
0.45150000
0.44250000
0.44050000
0.44550000
0.44700000
0.44550000
0.46200000
0.47100000
0.46950000
0.48150000
0.48800000
0.49100000
0.49450000
0.49000000
0.48200000
0.47900000
0.47550000
0.46600000
0.45850000
0.45400000
0.45000000
0.45200000
0.44850000
0.44250000
0.44350000
0.44400000
0.44800000
0.46400000
0.48250000
0.48850000
0.49450000
0.49750000
0.50500000
0.50300000
0.50600000
0.50600000
0.49450000
0.48500000
0.46800000
0.46650000
0.46100000
0.45400000
0.44750000
0.45200000
0.46150000
0.45150000
0.44400000
0.45150000
0.46000000
0.46900000
0.47950000
0.48600000
0.49350000
0.49300000
0.48650000
0.48050000
0.49400000
0.49150000
0.47150000
0.45900000
0.44800000
0.45150000
0.44400000
0.44550000
0.44200000
0.43800000
0.44900000
0.46650000
0.47950000
0.47250000
0.48600000
0.48800000
0.48300000
0.48300000
0.47900000
0.48300000
0.47900000
0.47400000
0.46750000
0.46100000
0.45050000
0.45050000
0.44950000
0.44450000
0.44150000
0.44600000
0.45700000
0.45950000
0.47200000
0.48200000
0.49550000
0.50800000
0.50300000
0.49450000
0.49150000
0.48700000
0.48000000
0.47300000
0.46300000
0.45900000
0.45400000
0.44800000
0.44000000
0.44250000
0.44100000
0.43450000
0.43850000
0.44450000
0.45950000
0.47050000
0.47800000
0.47800000
0.48150000
0.48550000
0.48650000
0.49250000
0.48400000
0.47950000
0.47700000
0.46650000
0.46450000
0.46650000
0.46500000
0.46200000
0.45800000
0.45900000
0.46050000
0.45550000
0.46050000
0.47300000
0.47650000
0.47100000
0.47250000
0.46800000
0.46600000
0.47000000
0.46150000
0.45750000
0.45200000
0.44300000
0.43900000
0.43900000
0.43500000
0.43400000
0.43550000
0.43800000
0.44400000
0.44900000
0.45900000
0.47400000
0.48450000
0.48750000
0.48500000
0.48500000
0.48600000
0.48200000
0.47800000
0.47000000
0.45850000
0.44800000
0.43450000
0.43050000
0.43050000
0.43000000
0.42700000
0.42450000
0.43200000
0.44050000
0.44650000
0.45500000
0.46600000
0.46900000
0.47200000
0.47150000
0.47250000
0.47600000
0.47300000
0.46950000
0.46550000
0.45900000
0.45050000
0.44650000
0.44550000
0.44950000
0.45200000
0.44900000
0.44800000
0.45300000
0.45950000
0.47050000
0.48000000
0.47900000
0.48300000
0.48450000
0.48450000
0.48650000
0.48050000
0.47000000
0.46300000
0.45450000
0.44600000
0.44300000
0.44000000
0.43750000
0.43250000
0.43300000
0.44100000
0.45050000
0.45350000
0.45800000
0.47050000
0.47350000
0.47950000
0.48200000
0.48400000
0.48550000
0.47900000
0.47350000
0.46750000
0.46200000
0.45550000
0.45100000
0.44850000
0.44350000
0.44200000
0.44000000
0.43650000
0.44650000
0.45200000
0.45800000
0.47000000
0.46950000
0.47450000
0.47150000
0.46900000
0.47500000
0.47450000
0.46800000
0.45800000
0.45250000
0.44650000
0.44150000
0.43700000
0.43750000
0.43650000
0.43500000
0.43750000
0.44250000
0.44750000
0.44950000
0.46250000
0.46750000
0.46950000
0.46850000
0.46700000
0.46700000
0.46200000
0.45650000
0.45200000
0.44400000
0.43350000
0.43350000
0.42900000
0.42800000
0.42300000
0.42350000
0.42750000
0.43000000
0.43800000
0.43700000
0.45050000
0.45900000
0.46000000
0.45550000
0.45550000
0.46200000
0.45600000
0.45000000
0.44050000
0.42950000
0.42050000
0.42100000
0.42050000
0.42350000
0.42250000
0.41150000
0.41450000
0.42700000
0.43250000
0.43550000
0.44450000
0.45000000
0.45500000
0.45200000
0.44700000
0.45000000
0.44350000
0.43650000
0.43300000
0.42650000
0.41800000
0.41350000
0.41150000
0.41550000
0.41650000
0.41450000
0.41500000
0.42150000
0.42750000
0.42850000
0.43350000
0.43900000
0.44550000
0.44450000
0.44600000
0.44800000
0.44050000
0.43200000
0.42150000
0.41200000
0.40300000
0.40000000
0.40150000
0.40350000
0.40300000
0.40300000
0.40550000
0.41150000
0.41850000
0.42500000
0.43150000
0.43350000
0.43550000
0.43650000
0.44000000
0.44050000
0.43700000
0.42850000
0.42200000
0.41600000
0.40200000
0.39950000
0.39800000
0.39750000
0.39550000
0.38900000
0.39200000
0.40200000
0.41400000
0.42350000
0.42450000
0.42400000
0.42850000
0.42800000
0.43250000
0.43250000
0.42750000
0.42200000
0.41150000
0.40300000
0.39150000
0.38650000
0.38400000
0.38500000
0.38750000
0.38650000
0.38900000
0.39400000
0.39550000
0.40100000
0.40700000
0.40850000
0.41050000
0.39900000
0.39150000
0.38750000
0.37700000
0.35900000
0.34700000
0.33850000
0.33650000
0.33250000
0.31700000
0.31250000
0.30400000
0.29600000
0.29500000
0.30200000
0.30750000
0.31300000
0.31700000
0.31800000
0.32250000
0.32500000
0.33400000
0.33900000
0.34700000
0.35400000
0.35150000
0.34050000
0.32450000
0.31200000
0.29700000
0.28700000
0.27850000
0.27050000
0.25900000
0.26250000
0.27700000
0.27100000
0.25650000
0.23900000
0.23550000
0.23200000
0.23900000
0.25150000
0.23400000
0.20500000
0.18600000
0.17300000
0.15850000
0.15450000
0.15050000
0.15150000
0.15700000
0.17050000
0.17050000
0.15300000
0.13850000
0.11600000
0.09550000
0.05800000
0.02350000
-0.00650000
-0.03750000
-0.05600000
-0.07250000
-0.07550000
-0.05700000
-0.02450000
-0.00050000
0.03150000
0.06550000
0.09100000
0.11300000
0.13200000
0.15200000
0.17800000
0.20800000
0.22950000
0.24850000
0.26050000
0.27500000
0.29350000
0.30950000
0.31500000
0.31350000
0.31150000
0.31250000
0.31650000
0.31750000
0.32550000
0.33100000
0.33900000
0.35000000
0.35950000
0.37000000
0.38250000
0.39350000
0.40450000
0.41800000
0.42100000
0.42050000
0.42700000
0.43700000
0.44100000
0.43700000
0.43100000
0.42200000
0.41100000
0.40400000
0.39950000
0.39150000
0.39200000
0.38750000
0.38300000
0.39250000
0.40000000
0.40400000
0.41500000
0.42650000
0.43000000
0.43000000
0.43050000
0.43550000
0.43400000
0.43100000
0.42950000
0.42650000
0.41950000
0.40950000
0.40900000
0.40500000
0.40150000
0.39900000
0.39700000
0.40250000
0.41250000
0.41700000
0.42150000
0.43200000
0.43650000
0.43500000
0.43200000
0.43550000
0.43800000
0.43400000
0.42400000
0.41550000
0.40750000
0.39750000
0.39700000
0.39600000
0.39900000
0.39500000
0.39050000
0.39200000
0.39700000
0.40450000
0.41150000
0.42050000
0.42050000
0.41950000
0.41650000
0.42050000
0.42350000
0.41900000
0.41550000
0.40900000
0.40250000
0.39450000
0.39150000
0.38750000
0.38750000
0.38650000
0.38250000
0.38650000
0.39400000
0.39950000
0.40700000
0.41450000
0.41350000
0.41500000
0.41000000
0.41100000
0.41750000
0.41200000
0.40250000
0.39450000
0.38400000
0.37500000
0.37250000
0.36950000
0.37250000
0.36900000
0.36550000
0.37100000
0.37850000
0.38450000
0.38750000
0.39450000
0.39650000
0.39550000
0.39050000
0.39550000
0.40050000
0.39250000
0.38300000
0.37450000
0.36850000
0.36000000
0.35450000
0.35150000
0.35050000
0.34850000
0.34750000
0.35400000
0.36250000
0.37000000
0.38000000
0.38900000
0.38950000
0.39050000
0.38750000
0.38700000
0.39150000
0.38900000
0.38050000
0.37050000
0.36400000
0.35800000
0.35550000
0.35250000
0.35550000
0.35550000
0.35450000
0.35850000
0.36750000
0.37750000
0.38350000
0.39150000
0.39450000
0.39850000
0.40150000
0.39950000
0.40150000
0.40050000
0.39500000
0.39200000
0.37850000
0.36850000
0.36950000
0.37050000
0.36950000
0.36800000
0.37250000
0.37800000
0.38750000
0.39800000
0.40800000
0.41350000
0.41150000
0.41500000
0.41350000
0.41150000
0.41100000
0.41000000
0.40300000
0.39850000
0.39400000
0.38900000
0.38750000
0.38800000
0.39500000
0.39150000
0.38650000
0.39600000
0.40650000
0.40900000
0.41600000
0.42500000
0.43100000
0.43450000
0.42900000
0.42950000
0.43150000
0.43050000
0.42750000
0.41850000
0.40800000
0.40100000
0.40300000
0.39950000
0.40450000
0.40850000
0.40550000
0.40800000
0.41750000
0.42150000
0.42950000
0.43850000
0.43700000
0.43900000
0.44350000
0.44700000
0.44300000
0.45200000
0.45100000
0.43600000
0.43350000
0.43000000
0.43050000
0.42750000
0.42600000
0.42500000
0.42550000
0.43500000
0.44650000
0.45400000
0.46400000
0.47300000
0.47650000
0.47850000
0.47700000
0.48350000
0.47950000
0.47550000
0.47550000
0.46650000
0.45950000
0.45600000
0.45600000
0.45300000
0.45500000
0.45400000
0.45400000
0.46300000
0.47100000
0.47400000
0.48600000
0.49950000
0.49750000
0.50100000
0.50350000
0.50300000
0.49800000
0.49350000
0.49100000
0.48450000
0.47800000
0.47250000
0.47100000
0.47050000
0.47500000
0.47600000
0.47600000
0.47850000
0.48500000
0.49250000
0.50050000
0.50550000
0.50550000
0.50600000
0.50300000
0.50900000
0.50900000
0.49900000
0.49250000
0.48400000
0.47500000
0.46900000
0.46500000
0.46250000
0.46600000
0.46300000
0.46200000
0.46900000
0.47500000
0.47900000
0.48600000
0.49000000
0.48750000
0.48650000
0.48350000
0.48450000
0.48200000
0.47300000
0.46300000
0.45750000
0.44750000
0.43900000
0.43450000
0.43050000
0.43450000
0.42900000
0.42750000
0.42850000
0.43300000
0.43850000
0.44350000
0.45350000
0.45300000
0.45200000
0.45050000
0.44950000
0.44900000
0.44000000
0.43250000
0.42450000
0.41500000
0.40700000
0.40500000
0.40650000
0.40750000
0.40350000
0.40200000
0.40800000
0.41250000
0.41600000
0.42300000
0.42950000
0.43250000
0.43300000
0.43050000
0.43100000
0.43000000
0.42150000
0.41200000
0.40900000
0.40150000
0.39500000
0.39500000
0.39300000
0.39450000
0.38800000
0.38300000
0.38950000
0.39800000
0.40350000
0.41150000
0.41650000
0.41900000
0.42400000
0.41950000
0.42150000
0.42150000
0.41200000
0.40300000
0.40200000
0.39600000
0.38400000
0.37750000
0.37500000
0.37750000
0.37600000
0.37900000
0.38400000
0.39100000
0.40000000
0.40700000
0.41300000
0.41500000
0.41450000
0.41350000
0.41700000
0.41650000
0.40850000
0.39250000
0.38600000
0.37850000
0.37000000
0.36750000
0.36800000
0.37550000
0.37200000
0.36900000
0.37550000
0.38700000
0.39250000
0.39800000
0.40150000
0.40550000
0.41000000
0.40650000
0.41250000
0.41200000
0.40750000
0.39950000
0.38900000
0.37900000
0.37200000
0.37100000
0.36900000
0.37150000
0.37050000
0.37000000
0.37650000
0.38550000
0.38850000
0.39950000
0.40750000
0.40550000
0.40450000
0.40100000
0.40800000
0.41100000
0.40950000
0.40000000
0.39050000
0.38850000
0.38450000
0.38200000
0.38050000
0.38500000
0.38100000
0.38150000
0.38850000
0.39400000
0.39900000
0.40400000
0.41150000
0.41500000
0.41800000
0.41850000
0.42400000
0.42200000
0.41700000
0.41200000
0.40100000
0.39500000
0.39450000
0.39350000
0.39100000
0.39350000
0.39100000
0.38800000
0.39500000
0.40200000
0.40750000
0.41650000
0.42500000
0.42800000
0.42700000
0.42400000
0.42800000
0.42850000
0.42450000
0.41950000
0.40800000
0.39800000
0.39500000
0.39150000
0.38950000
0.39100000
0.38950000
0.39050000
0.39750000
0.40100000
0.40500000
0.41500000
0.42300000
0.42550000
0.42800000
0.42650000
0.42850000
0.43100000
0.42200000
0.41150000
0.40350000
0.39200000
0.38900000
0.39000000
0.39000000
0.39050000
0.38800000
0.39000000
0.39200000
0.39600000
0.40250000
0.41200000
0.41800000
0.41750000
0.41750000
0.41650000
0.41500000
0.41450000
0.41000000
0.39850000
0.39250000
0.38350000
0.37800000
0.37650000
0.37550000
0.37800000
0.37400000
0.37400000
0.37850000
0.38600000
0.39350000
0.40250000
0.40700000
0.41050000
0.41600000
0.41350000
0.41500000
0.41350000
0.40300000
0.39450000
0.39300000
0.38650000
0.38000000
0.37600000
0.37650000
0.38100000
0.37700000
0.37800000
0.38150000
0.38750000
0.39100000
0.40050000
0.40850000
0.41400000
0.41750000
0.41250000
0.41600000
0.41400000
0.40650000
0.39550000
0.38850000
0.37950000
0.37350000
0.37500000
0.37450000
0.37700000
0.37350000
0.37550000
0.38400000
0.39250000
0.39650000
0.40700000
0.41300000
0.41400000
0.41550000
0.41200000
0.41600000
0.41550000
0.41050000
0.40250000
0.40000000
0.39250000
0.38300000
0.38300000
0.38050000
0.38150000
0.38350000
0.38550000
0.39000000
0.39550000
0.39950000
0.41050000
0.42150000
0.42500000
0.42700000
0.42350000
0.42500000
0.42050000
0.41850000
0.41400000
0.40550000
0.39800000
0.38550000
0.38500000
0.38900000
0.38950000
0.38850000
0.38950000
0.39700000
0.40450000
0.40850000
0.41800000
0.42200000
0.42450000
0.42750000
0.42350000
0.43100000
0.42950000
0.42050000
0.41700000
0.41200000
0.40650000
0.39700000
0.39050000
0.39400000
0.39450000
0.39150000
0.39300000
0.40000000
0.41050000
0.41700000
0.42900000
0.43600000
0.43650000
0.43750000
0.43500000
0.43850000
0.44100000
0.43200000
0.42550000
0.41900000
0.41000000
0.40650000
0.40000000
0.40200000
0.40500000
0.40150000
0.40400000
0.41050000
0.41950000
0.42600000
0.43350000
0.43700000
0.43850000
0.43800000
0.43550000
0.43950000
0.44300000
0.43600000
0.42600000
0.42050000
0.41050000
0.40700000
0.40100000
0.40450000
0.40550000
0.40150000
0.41000000
0.41300000
0.42300000
0.42500000
0.42950000
0.43500000
0.43750000
0.43950000
0.43400000
0.43550000
0.43500000
0.43050000
0.42250000
0.42000000
0.41150000
0.40550000
0.40000000
0.39750000
0.40150000
0.39850000
0.40100000
0.40350000
0.40850000
0.41350000
0.41900000
0.42400000
0.42450000
0.42750000
0.43300000
0.43650000
0.43700000
0.43000000
0.42100000
0.41600000
0.40600000
0.39600000
0.38600000
0.38550000
0.38950000
0.38700000
0.39100000
0.39300000
0.39800000
0.41050000
0.41900000
0.42200000
0.42350000
0.42000000
0.41650000
0.42100000
0.42450000
0.41800000
0.40800000
0.40600000
0.39400000
0.38950000
0.38650000
0.38150000
0.38450000
0.38250000
0.38300000
0.38750000
0.39350000
0.39450000
0.40550000
0.41150000
0.41350000
0.41950000
0.41600000
0.42000000
0.41850000
0.41000000
0.40550000
0.39900000
0.38800000
0.38400000
0.38300000
0.37550000
0.37450000
0.37400000
0.37550000
0.38400000
0.39250000
0.39700000
0.40400000
0.41200000
0.41400000
0.41150000
0.41350000
0.41750000
0.41650000
0.41300000
0.40150000
0.39450000
0.38450000
0.37900000
0.37650000
0.37200000
0.37750000
0.37600000
0.37800000
0.38500000
0.39300000
0.40200000
0.40850000
0.41150000
0.41350000
0.41750000
0.41700000
0.41750000
0.41450000
0.40600000
0.39850000
0.39200000
0.38300000
0.37700000
0.37750000
0.37850000
0.37950000
0.38250000
0.38600000
0.39150000
0.40050000
0.40350000
0.41000000
0.41750000
0.41750000
0.41300000
0.41100000
0.41800000
0.41700000
0.41150000
0.40700000
0.39850000
0.39050000
0.38600000
0.38350000
0.38150000
0.37900000
0.37950000
0.38550000
0.39150000
0.39800000
0.40150000
0.40800000
0.41300000
0.41400000
0.41500000
0.41750000
0.42150000
0.41850000
0.41350000
0.40750000
0.39850000
0.38800000
0.38700000
0.38350000
0.38300000
0.38700000
0.38400000
0.38500000
0.39150000
0.40050000
0.40450000
0.41400000
0.42200000
0.42400000
0.42050000
0.42100000
0.42850000
0.42450000
0.41500000
0.40700000
0.40050000
0.38950000
0.38400000
0.38100000
0.38100000
0.38000000
0.37900000
0.38300000
0.38800000
0.39750000
0.40400000
0.41250000
0.41500000
0.41850000
0.41850000
0.41600000
0.41750000
0.41550000
0.40800000
0.40100000
0.39500000
0.38050000
0.37550000
0.37350000
0.37600000
0.37650000
0.37100000
0.37750000
0.38450000
0.39200000
0.40000000
0.41100000
0.41450000
0.41400000
0.41150000
0.40900000
0.41250000
0.40850000
0.40400000
0.39850000
0.39150000
0.38200000
0.37900000
0.37850000
0.37900000
0.38050000
0.37100000
0.37550000
0.38550000
0.38700000
0.39500000
0.40450000
0.40750000
0.40700000
0.40700000
0.40750000
0.40900000
0.40750000
0.40350000
0.39650000
0.38850000
0.37550000
0.36850000
0.36650000
0.36800000
0.36900000
0.36000000
0.36050000
0.37200000
0.38150000
0.38800000
0.39700000
0.40250000
0.40600000
0.40200000
0.39800000
0.40200000
0.39950000
0.39350000
0.38500000
0.38000000
0.37250000
0.36900000
0.36950000
0.36600000
0.36450000
0.35950000
0.36000000
0.37050000
0.38150000
0.39050000
0.40000000
0.40300000
0.40350000
0.40050000
0.39850000
0.40250000
0.40150000
0.39250000
0.38550000
0.37900000
0.36750000
0.36550000
0.36400000
0.36200000
0.36300000
0.36100000
0.35950000
0.36550000
0.37700000
0.38450000
0.39550000
0.40000000
0.40200000
0.40300000
0.40200000
0.40250000
0.39950000
0.39350000
0.37950000
0.37500000
0.36750000
0.36150000
0.36200000
0.36300000
0.36450000
0.35900000
0.35750000
0.36450000
0.37550000
0.38500000
0.39500000
0.39700000
0.39800000
0.39300000
0.39000000
0.39550000
0.39250000
0.39000000
0.38300000
0.37200000
0.36250000
0.35750000
0.35550000
0.35800000
0.35900000
0.35800000
0.35750000
0.36150000
0.37250000
0.38000000
0.38850000
0.39200000
0.39450000
0.39150000
0.39100000
0.39700000
0.39650000
0.38800000
0.38250000
0.37900000
0.36850000
0.36700000
0.36300000
0.35900000
0.35700000
0.35450000
0.36100000
0.36500000
0.37350000
0.38150000
0.39100000
0.39700000
0.39950000
0.39900000
0.39700000
0.39700000
0.39300000
0.38850000
0.38250000
0.37650000
0.36900000
0.36750000
0.36500000
0.36600000
0.36950000
0.36550000
0.36400000
0.36400000
0.37000000
0.38000000
0.39050000
0.39400000
0.39600000
0.39550000
0.39450000
0.39650000
0.39300000
0.38600000
0.37900000
0.37250000
0.36400000
0.36150000
0.35950000
0.36000000
0.36100000
0.35900000
0.36000000
0.36200000
0.36650000
0.38100000
0.39250000
0.39100000
0.39200000
0.38650000
0.38550000
0.39050000
0.39000000
0.38900000
0.38300000
0.37700000
0.36550000
0.35950000
0.35800000
0.35750000
0.36150000
0.35900000
0.35700000
0.35350000
0.35650000
0.36000000
0.36000000
0.36200000
0.36100000
0.36100000
0.35650000
0.34350000
0.33500000
0.32650000
0.31500000
0.30200000
0.28500000
0.27600000
0.26850000
0.26150000
0.26250000
0.26000000
0.26000000
0.26550000
0.26300000
0.27250000
0.28100000
0.27800000
0.27450000
0.25400000
0.23450000
0.21800000
0.20250000
0.19000000
0.17300000
0.15300000
0.13800000
0.13600000
0.11900000
0.09800000
0.07300000
0.07150000
0.09950000
0.12450000
0.13900000
0.12750000
0.11350000
0.09750000
0.09400000
0.08900000
0.08150000
0.08350000
0.08250000
0.09200000
0.09650000
0.08100000
0.05550000
0.03150000
0.00450000
-0.01650000
-0.05550000
-0.10250000
-0.13250000
-0.14900000
-0.15800000
-0.16000000
-0.13850000
-0.11700000
-0.09800000
-0.08100000
-0.05100000
-0.01750000
-0.00600000
-0.00100000
0.01500000
0.04650000
0.07200000
0.09450000
0.11400000
0.13600000
0.15550000
0.17250000
0.18750000
0.20150000
0.21900000
0.23250000
0.25200000
0.26600000
0.28250000
0.30000000
0.31600000
0.33850000
0.35200000
0.35650000
0.35350000
0.34800000
0.34000000
0.33700000
0.33650000
0.33900000
0.34250000
0.34500000
0.35200000
0.36350000
0.37100000
0.37250000
0.38400000
0.39000000
0.39200000
0.39350000
0.39400000
0.39700000
0.39200000
0.38150000
0.37200000
0.36800000
0.35900000
0.35750000
0.35750000
0.35950000
0.36100000
0.35900000
0.36350000
0.36800000
0.37950000
0.38350000
0.38700000
0.39350000
0.40150000
0.40600000
0.40550000
0.40700000
0.40250000
0.39300000
0.38500000
0.38000000
0.37500000
0.37100000
0.36850000
0.36700000
0.36650000
0.36000000
0.35900000
0.36800000
0.37400000
0.38000000
0.38750000
0.39450000
0.39500000
0.39300000
0.39550000
0.39200000
0.38650000
0.38100000
0.37000000
0.36250000
0.35550000
0.35450000
0.35500000
0.35400000
0.35550000
0.35500000
0.35450000
0.35850000
0.36450000
0.37100000
0.37700000
0.38050000
0.38600000
0.38600000
0.38750000
0.38950000
0.38500000
0.38200000
0.37000000
0.35950000
0.34900000
0.33800000
0.33550000
0.33850000
0.34200000
0.34250000
0.34550000
0.35200000
0.35800000
0.35900000
0.36100000
0.36800000
0.37250000
0.37100000
0.37200000
0.37200000
0.36800000
0.35900000
0.35250000
0.34050000
0.32650000
0.32750000
0.32850000
0.33150000
0.33000000
0.32750000
0.32900000
0.33950000
0.35050000
0.35700000
0.35950000
0.35250000
0.35500000
0.35650000
0.35950000
0.36000000
0.35550000
0.35050000
0.34300000
0.33450000
0.32250000
0.31900000
0.31600000
0.31650000
0.32100000
0.32250000
0.32750000
0.33900000
0.34750000
0.35700000
0.36600000
0.36300000
0.36450000
0.36350000
0.36600000
0.36900000
0.36800000
0.36550000
0.35600000
0.34700000
0.33300000
0.32500000
0.33450000
0.34200000
0.33850000
0.33650000
0.34000000
0.34700000
0.35350000
0.36200000
0.36650000
0.36500000
0.37150000
0.37300000
0.37050000
0.36650000
0.35750000
0.35450000
0.35100000
0.34150000
0.33500000
0.33550000
0.33600000
0.33250000
0.32900000
0.33000000
0.33400000
0.34450000
0.35450000
0.36200000
0.36650000
0.37050000
0.38150000
0.38550000
0.38750000
0.38950000
0.38450000
0.37650000
0.37250000
0.36250000
0.34950000
0.34900000
0.34950000
0.35300000
0.35150000
0.35450000
0.35500000
0.36250000
0.37800000
0.38350000
0.39350000
0.39250000
0.38650000
0.38550000
0.39300000
0.40050000
0.39850000
0.38900000
0.38000000
0.37450000
0.36900000
0.37200000
0.36350000
0.36450000
0.36550000
0.35550000
0.36600000
0.37550000
0.38250000
0.39300000
0.40300000
0.41200000
0.41500000
0.41600000
0.41550000
0.41900000
0.41850000
0.41400000
0.41300000
0.40700000
0.39400000
0.39300000
0.39150000
0.39300000
0.39750000
0.39500000
0.40600000
0.41700000
0.42450000
0.43450000
0.43450000
0.43000000
0.43250000
0.43900000
0.44100000
0.43700000
0.43900000
0.43350000
0.42150000
0.41450000
0.40200000
0.40550000
0.41500000
0.42050000
0.42500000
0.42050000
0.42050000
0.43400000
0.44050000
0.44950000
0.45450000
0.45500000
0.46350000
0.45650000
0.45850000
0.46350000
0.46000000
0.45350000
0.44800000
0.44350000
0.44100000
0.44500000
0.43350000
0.43200000
0.43000000
0.42450000
0.42650000
0.42850000
0.43550000
0.44600000
0.45050000
0.44850000
0.45450000
0.44850000
0.44600000
0.45500000
0.45150000
0.43950000
0.42800000
0.42150000
0.41550000
0.40950000
0.40250000
0.39850000
0.39850000
0.40400000
0.40800000
0.41200000
0.41500000
0.42500000
0.43100000
0.42600000
0.42400000
0.40950000
0.40750000
0.41000000
0.40300000
0.39200000
0.38050000
0.37700000
0.36950000
0.36450000
0.36050000
0.35900000
0.35350000
0.35100000
0.35850000
0.36200000
0.35500000
0.35950000
0.37050000
0.36950000
0.37300000
0.37000000
0.37200000
0.37300000
0.36200000
0.35750000
0.35700000
0.35900000
0.35150000
0.34400000
0.33900000
0.33800000
0.33550000
0.33600000
0.34550000
0.35300000
0.35550000
0.35350000
0.35750000
0.35450000
0.35500000
0.35200000
0.35200000
0.36200000
0.35200000
0.34100000
0.33450000
0.32200000
0.32050000
0.32450000
0.32300000
0.32250000
0.32050000
0.31650000
0.32000000
0.32850000
0.33400000
0.34500000
0.35400000
0.35400000
0.35150000
0.34750000
0.35350000
0.35600000
0.35550000
0.34700000
0.33250000
0.32100000
0.31050000
0.30250000
0.30100000
0.31000000
0.30900000
0.31400000
0.32100000
0.31750000
0.31800000
0.32850000
0.33850000
0.34100000
0.34200000
0.33750000
0.33650000
0.34200000
0.34700000
0.33500000
0.33000000
0.32650000
0.31750000
0.31800000
0.30400000
0.30450000
0.31450000
0.31200000
0.30750000
0.31400000
0.31850000
0.32450000
0.33350000
0.32700000
0.32600000
0.33250000
0.33250000
0.33000000
0.33050000
0.32200000
0.31600000
0.31350000
0.30350000
0.30000000
0.30400000
0.30300000
0.30150000
0.30000000
0.30450000
0.31500000
0.32150000
0.33050000
0.33550000
0.34550000
0.34950000
0.34700000
0.35000000
0.34300000
0.34400000
0.34500000
0.33000000
0.31350000
0.31100000
0.31050000
0.30700000
0.30750000
0.30600000
0.31800000
0.32450000
0.32650000
0.32950000
0.33400000
0.34600000
0.35000000
0.35900000
0.35900000
0.35700000
0.35700000
0.34700000
0.33850000
0.33550000
0.33200000
0.32350000
0.31750000
0.30850000
0.30650000
0.30200000
0.29950000
0.30600000
0.31550000
0.32900000
0.34550000
0.36450000
0.36650000
0.36350000
0.36650000
0.37450000
0.37150000
0.36400000
0.35900000
0.35450000
0.34850000
0.34200000
0.34200000
0.33800000
0.34300000
0.33750000
0.33450000
0.33650000
0.33850000
0.34200000
0.34250000
0.35450000
0.36600000
0.36800000
0.36450000
0.36950000
0.36450000
0.35700000
0.35850000
0.34750000
0.33700000
0.33550000
0.33500000
0.33150000
0.33000000
0.33000000
0.32900000
0.33400000
0.34250000
0.34600000
0.36200000
0.36500000
0.36500000
0.37750000
0.37250000
0.37650000
0.37350000
0.36700000
0.37150000
0.36450000
0.34650000
0.34400000
0.34550000
0.34150000
0.34850000
0.34850000
0.34450000
0.34750000
0.35600000
0.36500000
0.38300000
0.39000000
0.38400000
0.39150000
0.38700000
0.38850000
0.39400000
0.38800000
0.38300000
0.36950000
0.35750000
0.35350000
0.35050000
0.35050000
0.34950000
0.34750000
0.35150000
0.35650000
0.36800000
0.37950000
0.38450000
0.38950000
0.39350000
0.39200000
0.39300000
0.39200000
0.39750000
0.38950000
0.37050000
0.37850000
0.37050000
0.36400000
0.36250000
0.35550000
0.35700000
0.35000000
0.35000000
0.35900000
0.36400000
0.36550000
0.37800000
0.38500000
0.39000000
0.39250000
0.39200000
0.39200000
0.38600000
0.38600000
0.37500000
0.37600000
0.37900000
0.37300000
0.36300000
0.36100000
0.36550000
0.36050000
0.36300000
0.36750000
0.37850000
0.38550000
0.39000000
0.39850000
0.40300000
0.40100000
0.39750000
0.40000000
0.40850000
0.40700000
0.39000000
0.38900000
0.38800000
0.37500000
0.37550000
0.38650000
0.38650000
0.37600000
0.37250000
0.37500000
0.37800000
0.37350000
0.37850000
0.38400000
0.38750000
0.39750000
0.40050000
0.40300000
0.39750000
0.39100000
0.37900000
0.37450000
0.37250000
0.36050000
0.35850000
0.35500000
0.36350000
0.36550000
0.35850000
0.36250000
0.36600000
0.37050000
0.37900000
0.39350000
0.40150000
0.39950000
0.39150000
0.38950000
0.38200000
0.37000000
0.36750000
0.36200000
0.36000000
0.36150000
0.35900000
0.35500000
0.35900000
0.35950000
0.36000000
0.36650000
0.37400000
0.37900000
0.38750000
0.39300000
0.39400000
0.40100000
0.40450000
0.40650000
0.40400000
0.39650000
0.38750000
0.37250000
0.35850000
0.35800000
0.35850000
0.35250000
0.35350000
0.35250000
0.34150000
0.34300000
0.36150000
0.36600000
0.36750000
0.37750000
0.37900000
0.38150000
0.38650000
0.38450000
0.38200000
0.37950000
0.37600000
0.37050000
0.36200000
0.36500000
0.36350000
0.36500000
0.37250000
0.36450000
0.36150000
0.36600000
0.37350000
0.38000000
0.38900000
0.38750000
0.38800000
0.39050000
0.38550000
0.38950000
0.38500000
0.37500000
0.36650000
0.35600000
0.33850000
0.33500000
0.33700000
0.33650000
0.33650000
0.33600000
0.33900000
0.34500000
0.35850000
0.36500000
0.37450000
0.38000000
0.38200000
0.38300000
0.38450000
0.39200000
0.38850000
0.37950000
0.37600000
0.37200000
0.35800000
0.35400000
0.35100000
0.34950000
0.35850000
0.35600000
0.35100000
0.35700000
0.36400000
0.36600000
0.37700000
0.38500000
0.38800000
0.39150000
0.38850000
0.38450000
0.37900000
0.37600000
0.36850000
0.36500000
0.35700000
0.35300000
0.35600000
0.35600000
0.35750000
0.35600000
0.36450000
0.36850000
0.37000000
0.37500000
0.38150000
0.38600000
0.38700000
0.38850000
0.38850000
0.39200000
0.38900000
0.38350000
0.37900000
0.36950000
0.36100000
0.35950000
0.35250000
0.35300000
0.35400000
0.34500000
0.34600000
0.35350000
0.36400000
0.36700000
0.37550000
0.38400000
0.38700000
0.39000000
0.38700000
0.39000000
0.38750000
0.38350000
0.37550000
0.37000000
0.36100000
0.35200000
0.35350000
0.35450000
0.35400000
0.35050000
0.35150000
0.35650000
0.36550000
0.36850000
0.37800000
0.38150000
0.38200000
0.38700000
0.38300000
0.38600000
0.38750000
0.38250000
0.37300000
0.36500000
0.35750000
0.35050000
0.34950000
0.35500000
0.35350000
0.34700000
0.35050000
0.35750000
0.36850000
0.37600000
0.37900000
0.38500000
0.39250000
0.39500000
0.39450000
0.39650000
0.39250000
0.38550000
0.37500000
0.36750000
0.36000000
0.34850000
0.34500000
0.35150000
0.35150000
0.34700000
0.34800000
0.35450000
0.36900000
0.37250000
0.37800000
0.38300000
0.38250000
0.38400000
0.38150000
0.38350000
0.38550000
0.38100000
0.37200000
0.36400000
0.35450000
0.34750000
0.34050000
0.34200000
0.34750000
0.34850000
0.34900000
0.35600000
0.36500000
0.36700000
0.37750000
0.38150000
0.38350000
0.38100000
0.37750000
0.38250000
0.38000000
0.37350000
0.36750000
0.36200000
0.35400000
0.34750000
0.34100000
0.34250000
0.34850000
0.35100000
0.35300000
0.35550000
0.36450000
0.36850000
0.37450000
0.37700000
0.37700000
0.37600000
0.37700000
0.38400000
0.38250000
0.37600000
0.36500000
0.35700000
0.34850000
0.34350000
0.34200000
0.34000000
0.34250000
0.34100000
0.34850000
0.35550000
0.35900000
0.36500000
0.37650000
0.38400000
0.38250000
0.37900000
0.37750000
0.37800000
0.37700000
0.37300000
0.35950000
0.35450000
0.34950000
0.34650000
0.33900000
0.33300000
0.33900000
0.33500000
0.33850000
0.34750000
0.35700000
0.36250000
0.37050000
0.37300000
0.37250000
0.37550000
0.37150000
0.37650000
0.37650000
0.37150000
0.36650000
0.35850000
0.34850000
0.34550000
0.34400000
0.33500000
0.33500000
0.33500000
0.33950000
0.35050000
0.35850000
0.36000000
0.37100000
0.37600000
0.37300000
0.37300000
0.37000000
0.37450000
0.37450000
0.36650000
0.35900000
0.35150000
0.34500000
0.33900000
0.33850000
0.34000000
0.34450000
0.34550000
0.34550000
0.35300000
0.35800000
0.36100000
0.37100000
0.37400000
0.37450000
0.37650000
0.37400000
0.37900000
0.38050000
0.37300000
0.36450000
0.35550000
0.34850000
0.34500000
0.34300000
0.34050000
0.34000000
0.34100000
0.34450000
0.35100000
0.35750000
0.36300000
0.37550000
0.38150000
0.38000000
0.37750000
0.37800000
0.38400000
0.38100000
0.37600000
0.36850000
0.36050000
0.34950000
0.33900000
0.34100000
0.34350000
0.34550000
0.34700000
0.34950000
0.35750000
0.36650000
0.37150000
0.37600000
0.38100000
0.38900000
0.39100000
0.39050000
0.39200000
0.38800000
0.37900000
0.36900000
0.36250000
0.35800000
0.35650000
0.35550000
0.35550000
0.35250000
0.35000000
0.35400000
0.36250000
0.37250000
0.37750000
0.38450000
0.38850000
0.39100000
0.38850000
0.38500000
0.38950000
0.39300000
0.38900000
0.38050000
0.37550000
0.36300000
0.36000000
0.35950000
0.35750000
0.35700000
0.35450000
0.36000000
0.36550000
0.37550000
0.37950000
0.38700000
0.39450000
0.39850000
0.39800000
0.39600000
0.39750000
0.39600000
0.39150000
0.38350000
0.37950000
0.36750000
0.36250000
0.35950000
0.36100000
0.36400000
0.35500000
0.35950000
0.36550000
0.37000000
0.37300000
0.37800000
0.38750000
0.38950000
0.38700000
0.38750000
0.39000000
0.38950000
0.38300000
0.37400000
0.36650000
0.35500000
0.34550000
0.33350000
0.33100000
0.32100000
0.30900000
0.31750000
0.32750000
0.33650000
0.32850000
0.32550000
0.32450000
0.31600000
0.30800000
0.30300000
0.30250000
0.29350000
0.28400000
0.28200000
0.28550000
0.28050000
0.27800000
0.28100000
0.28950000
0.29600000
0.29850000
0.30150000
0.29500000
0.29500000
0.29050000
0.28950000
0.29300000
0.29450000
0.29150000
0.27800000
0.27800000
0.27100000
0.24000000
0.21000000
0.18650000
0.17350000
0.17750000
0.19650000
0.20150000
0.17600000
0.14850000
0.13950000
0.14700000
0.15100000
0.15300000
0.16200000
0.17200000
0.19000000
0.18950000
0.16950000
0.14950000
0.11500000
0.08100000
0.04250000
-0.00300000
-0.04900000
-0.09450000
-0.12850000
-0.14150000
-0.14350000
-0.13400000
-0.10350000
-0.07400000
-0.04250000
-0.01050000
0.02250000
0.05400000
0.08100000
0.10850000
0.14400000
0.17800000
0.19450000
0.20750000
0.21950000
0.23450000
0.24450000
0.25250000
0.25700000
0.26300000
0.27400000
0.27950000
0.28200000
0.29450000
0.31550000
0.33250000
0.35600000
0.37550000
0.38650000
0.38950000
0.39250000
0.39500000
0.39250000
0.38600000
0.38100000
0.37700000
0.37050000
0.37050000
0.36900000
0.37000000
0.36700000
0.36800000
0.37150000
0.38100000
0.39550000
0.39950000
0.40650000
0.41000000
0.41450000
0.41050000
0.41150000
0.41100000
0.40600000
0.40550000
0.39650000
0.39350000
0.38650000
0.37900000
0.37600000
0.37800000
0.37750000
0.37750000
0.38050000
0.38500000
0.40000000
0.41350000
0.42500000
0.42500000
0.42500000
0.42300000
0.41950000
0.42150000
0.41750000
0.41300000
0.40750000
0.40200000
0.39550000
0.39250000
0.39550000
0.40150000
0.39250000
0.38600000
0.38800000
0.38950000
0.40000000
0.40650000
0.40900000
0.40650000
0.40900000
0.41050000
0.41000000
0.41150000
0.40850000
0.40550000
0.39500000
0.38350000
0.37350000
0.37300000
0.37900000
0.38000000
0.37700000
0.37500000
0.37750000
0.37950000
0.38800000
0.40000000
0.40850000
0.41450000
0.41700000
0.41400000
0.41250000
0.41500000
0.41100000
0.39900000
0.38950000
0.38650000
0.38200000
0.38050000
0.37950000
0.38150000
0.38050000
0.37500000
0.38100000
0.38550000
0.38800000
0.39650000
0.40750000
0.40950000
0.41100000
0.40950000
0.40700000
0.41000000
0.40600000
0.39850000
0.39250000
0.38700000
0.37750000
0.37400000
0.37150000
0.37150000
0.37100000
0.36550000
0.36800000
0.37250000
0.37850000
0.38900000
0.39750000
0.39600000
0.39500000
0.39250000
0.39600000
0.40250000
0.39750000
0.38850000
0.38300000
0.37750000
0.36800000
0.36500000
0.36150000
0.36100000
0.36400000
0.36550000
0.36750000
0.37600000
0.38350000
0.38750000
0.39550000
0.39700000
0.40150000
0.40550000
0.40950000
0.41050000
0.40750000
0.40450000
0.39750000
0.38850000
0.38250000
0.38250000
0.37600000
0.37700000
0.37650000
0.37250000
0.37750000
0.39050000
0.39850000
0.40250000
0.41650000
0.42350000
0.42600000
0.42600000
0.43150000
0.43350000
0.42400000
0.41850000
0.41550000
0.40550000
0.39850000
0.40100000
0.39950000
0.39950000
0.39850000
0.40100000
0.40800000
0.41700000
0.42350000
0.42750000
0.43950000
0.44400000
0.44850000
0.45250000
0.45700000
0.45850000
0.45600000
0.45000000
0.44500000
0.43850000
0.42750000
0.43000000
0.42600000
0.42750000
0.43100000
0.42900000
0.43400000
0.44350000
0.45300000
0.45600000
0.46650000
0.47100000
0.47500000
0.47800000
0.47900000
0.48400000
0.48150000
0.47750000
0.47150000
0.46550000
0.45850000
0.45300000
0.44950000
0.45000000
0.45200000
0.45000000
0.45200000
0.46300000
0.47500000
0.47850000
0.49000000
0.49750000
0.50050000
0.50400000
0.50800000
0.51150000
0.50350000
0.49850000
0.49450000
0.48500000
0.47900000
0.47650000
0.47300000
0.47550000
0.47600000
0.47900000
0.48550000
0.49200000
0.50450000
0.50850000
0.51850000
0.52850000
0.52650000
0.52400000
0.52950000
0.53400000
0.52800000
0.52050000
0.51550000
0.51150000
0.50350000
0.50100000
0.50050000
0.50150000
0.50300000
0.50250000
0.50650000
0.51250000
0.52300000
0.53100000
0.53250000
0.53800000
0.54550000
0.54700000
0.54650000
0.54600000
0.54200000
0.53700000
0.53400000
0.52500000
0.51150000
0.50950000
0.50550000
0.50800000
0.50950000
0.50650000
0.50900000
0.51550000
0.52400000
0.52900000
0.53150000
0.53400000
0.53850000
0.53500000
0.52950000
0.52750000
0.52250000
0.51200000
0.49950000
0.49050000
0.48350000
0.47900000
0.47500000
0.47750000
0.47550000
0.47150000
0.47450000
0.48400000
0.49250000
0.49850000
0.50050000
0.49700000
0.49500000
0.49000000
0.49150000
0.49500000
0.48500000
0.47300000
0.47300000
0.46800000
0.46000000
0.45350000
0.45000000
0.45250000
0.44600000
0.43750000
0.43650000
0.44350000
0.44900000
0.45650000
0.46250000
0.46300000
0.46850000
0.46550000
0.46500000
0.46400000
0.46150000
0.45450000
0.44600000
0.44050000
0.43500000
0.43450000
0.42650000
0.42450000
0.42250000
0.42000000
0.41750000
0.42500000
0.43850000
0.44100000
0.44400000
0.44500000
0.45400000
0.45500000
0.45550000
0.45900000
0.45050000
0.44200000
0.43750000
0.43050000
0.42150000
0.41850000
0.41600000
0.41850000
0.41650000
0.41350000
0.41550000
0.42000000
0.42550000
0.43200000
0.44250000
0.44350000
0.44550000
0.44600000
0.44750000
0.44900000
0.44450000
0.44050000
0.43450000
0.42450000
0.41300000
0.40700000
0.40700000
0.41200000
0.41050000
0.40850000
0.41050000
0.41900000
0.42800000
0.43350000
0.44150000
0.43950000
0.43800000
0.44250000
0.44450000
0.44550000
0.44450000
0.43750000
0.42650000
0.42000000
0.41600000
0.41500000
0.41500000
0.41650000
0.41600000
0.41400000
0.41850000
0.42700000
0.42850000
0.43650000
0.44850000
0.45000000
0.45050000
0.45200000
0.45650000
0.45850000
0.45400000
0.44450000
0.43700000
0.43100000
0.42200000
0.42000000
0.41800000
0.41800000
0.41700000
0.41950000
0.42900000
0.43850000
0.44450000
0.45050000
0.45900000
0.46450000
0.46350000
0.45950000
0.46700000
0.47150000
0.46550000
0.45850000
0.45150000
0.44450000
0.43800000
0.43450000
0.43950000
0.44300000
0.44350000
0.44100000
0.44000000
0.45000000
0.45500000
0.46700000
0.47750000
0.48200000
0.48800000
0.48700000
0.49050000
0.49350000
0.48800000
0.47950000
0.47200000
0.46350000
0.46000000
0.45650000
0.45350000
0.45550000
0.45150000
0.45050000
0.45650000
0.46900000
0.47650000
0.48350000
0.49200000
0.49850000
0.50100000
0.49400000
0.49800000
0.49750000
0.49350000
0.48850000
0.48000000
0.47050000
0.46400000
0.46350000
0.45950000
0.46400000
0.46350000
0.46250000
0.46900000
0.47700000
0.48100000
0.48650000
0.49400000
0.49650000
0.49650000
0.49100000
0.49300000
0.49500000
0.48950000
0.47950000
0.47500000
0.47150000
0.46250000
0.46000000
0.46000000
0.45950000
0.45750000
0.45800000
0.46100000
0.47050000
0.47700000
0.48650000
0.49700000
0.49800000
0.50150000
0.49350000
0.49450000
0.50000000
0.49200000
0.48300000
0.47650000
0.46950000
0.46050000
0.46150000
0.46250000
0.46350000
0.46350000
0.46300000
0.46850000
0.47450000
0.48200000
0.48850000
0.49450000
0.49400000
0.49950000
0.50100000
0.50000000
0.50400000
0.49800000
0.49250000
0.48400000
0.47200000
0.46800000
0.46050000
0.45700000
0.46150000
0.46050000
0.46250000
0.46500000
0.47200000
0.47950000
0.48950000
0.50000000
0.50150000
0.50450000
0.49950000
0.50300000
0.50950000
0.50000000
0.49050000
0.48700000
0.48250000
0.47600000
0.47600000
0.47900000
0.48100000
0.48150000
0.48100000
0.48000000
0.48500000
0.49050000
0.50600000
0.51900000
0.51950000
0.52100000
0.51650000
0.51700000
0.51550000
0.51250000
0.50650000
0.49800000
0.49000000
0.49000000
0.48500000
0.47950000
0.48250000
0.47600000
0.47800000
0.48550000
0.49650000
0.50250000
0.51050000
0.51750000
0.52100000
0.52750000
0.52350000
0.52050000
0.51850000
0.51450000
0.50600000
0.50100000
0.49650000
0.49150000
0.49050000
0.49000000
0.49100000
0.48700000
0.49000000
0.50000000
0.50850000
0.51450000
0.52300000
0.53100000
0.53550000
0.53750000
0.53500000
0.53600000
0.53200000
0.52900000
0.52200000
0.51600000
0.50750000
0.49700000
0.49700000
0.49650000
0.49950000
0.49600000
0.49500000
0.49950000
0.51150000
0.52450000
0.53200000
0.53400000
0.53250000
0.53500000
0.53350000
0.53750000
0.53700000
0.53450000
0.52850000
0.52000000
0.51400000
0.50250000
0.49900000
0.49650000
0.49850000
0.50100000
0.49950000
0.50200000
0.51150000
0.51750000
0.52850000
0.53650000
0.53550000
0.54100000
0.53850000
0.54050000
0.53800000
0.53100000
0.52600000
0.52050000
0.51500000
0.50650000
0.50750000
0.50450000
0.50150000
0.50150000
0.50150000
0.50800000
0.51850000
0.52450000
0.53300000
0.54150000
0.54500000
0.54400000
0.54050000
0.55150000
0.54700000
0.53300000
0.52800000
0.52250000
0.51850000
0.51100000
0.50650000
0.50600000
0.50900000
0.51050000
0.51000000
0.51250000
0.52050000
0.53050000
0.54000000
0.54550000
0.54200000
0.54100000
0.54050000
0.54250000
0.54100000
0.53000000
0.52350000
0.52350000
0.51500000
0.50550000
0.50250000
0.49700000
0.50050000
0.50050000
0.50250000
0.51150000
0.51600000
0.52300000
0.52850000
0.53300000
0.53700000
0.54150000
0.54400000
0.54550000
0.54550000
0.53650000
0.52950000
0.52400000
0.51300000
0.50750000
0.50500000
0.50300000
0.50450000
0.50400000
0.50150000
0.50600000
0.51850000
0.52400000
0.53100000
0.53850000
0.54200000
0.54100000
0.53700000
0.54250000
0.54450000
0.53750000
0.52550000
0.51750000
0.51000000
0.50450000
0.50500000
0.50850000
0.51150000
0.50050000
0.49750000
0.50700000
0.51400000
0.52250000
0.52950000
0.53300000
0.53550000
0.53750000
0.53800000
0.54250000
0.54450000
0.53500000
0.52150000
0.51650000
0.51100000
0.50350000
0.50350000
0.50300000
0.50550000
0.50500000
0.50850000
0.51600000
0.52250000
0.52550000
0.52900000
0.53550000
0.53900000
0.53800000
0.53750000
0.54000000
0.53700000
0.53400000
0.52200000
0.51850000
0.51350000
0.50350000
0.50350000
0.50400000
0.50750000
0.50150000
0.50250000
0.50950000
0.51950000
0.52700000
0.53900000
0.54450000
0.54000000
0.54550000
0.54350000
0.54300000
0.54550000
0.54250000
0.53300000
0.52200000
0.51450000
0.50850000
0.50650000
0.51050000
0.51400000
0.50800000
0.50750000
0.51200000
0.51900000
0.52800000
0.53500000
0.54200000
0.54650000
0.55000000
0.54950000
0.55150000
0.54950000
0.54650000
0.53700000
0.52600000
0.52150000
0.51500000
0.50750000
0.50450000
0.50850000
0.50800000
0.50700000
0.51350000
0.52400000
0.52750000
0.53550000
0.54200000
0.54000000
0.54200000
0.54600000
0.55300000
0.55250000
0.54800000
0.53950000
0.52900000
0.51950000
0.51500000
0.51000000
0.50950000
0.51400000
0.51150000
0.51300000
0.51950000
0.52650000
0.52950000
0.53700000
0.53950000
0.53950000
0.54350000
0.54600000
0.55350000
0.55350000
0.55250000
0.54800000
0.53100000
0.52200000
0.51900000
0.51050000
0.50950000
0.51600000
0.51400000
0.51100000
0.51850000
0.53150000
0.53750000
0.54600000
0.55250000
0.55450000
0.55500000
0.54950000
0.55100000
0.55450000
0.55000000
0.54250000
0.53550000
0.52300000
0.51800000
0.51400000
0.51800000
0.52300000
0.51700000
0.51700000
0.52250000
0.53550000
0.54150000
0.54800000
0.54600000
0.54900000
0.55850000
0.55950000
0.56150000
0.55800000
0.55050000
0.54650000
0.53850000
0.52050000
0.52050000
0.52100000
0.51800000
0.52000000
0.51150000
0.51100000
0.51950000
0.53250000
0.53950000
0.54750000
0.55600000
0.55600000
0.55800000
0.55900000
0.56100000
0.55950000
0.55550000
0.54600000
0.53650000
0.52400000
0.52300000
0.52650000
0.52000000
0.51800000
0.51350000
0.51600000
0.52750000
0.54000000
0.54350000
0.54950000
0.55300000
0.55200000
0.55550000
0.55400000
0.55400000
0.55350000
0.54700000
0.54100000
0.53650000
0.52700000
0.52100000
0.52000000
0.51950000
0.52100000
0.51700000
0.51800000
0.52650000
0.53500000
0.54100000
0.54950000
0.55200000
0.55350000
0.55700000
0.55850000
0.56550000
0.56400000
0.55650000
0.54600000
0.54250000
0.53350000
0.52700000
0.53000000
0.52550000
0.52450000
0.52250000
0.52400000
0.52750000
0.53350000
0.53900000
0.54850000
0.55600000
0.55650000
0.55900000
0.55700000
0.56050000
0.55900000
0.54900000
0.54200000
0.54050000
0.53300000
0.52400000
0.52450000
0.52750000
0.52750000
0.52600000
0.52850000
0.53650000
0.54700000
0.54800000
0.55350000
0.55950000
0.56400000
0.56900000
0.56300000
0.56550000
0.56450000
0.55600000
0.55200000
0.54450000
0.53550000
0.52750000
0.52550000
0.52800000
0.52900000
0.52700000
0.52750000
0.53350000
0.54300000
0.54950000
0.55750000
0.55900000
0.56150000
0.56350000
0.56000000
0.56050000
0.55650000
0.55550000
0.55000000
0.54250000
0.54000000
0.53450000
0.52650000
0.53150000
0.54300000
0.53950000
0.53850000
0.54750000
0.55600000
0.56200000
0.57350000
0.57800000
0.57750000
0.58150000
0.58050000
0.57800000
0.57100000
0.56550000
0.56050000
0.55450000
0.54950000
0.53800000
0.52800000
0.52900000
0.53000000
0.53100000
0.53900000
0.54350000
0.54800000
0.55500000
0.56700000
0.57700000
0.57700000
0.57400000
0.56800000
0.57350000
0.57800000
0.56750000
0.55900000
0.55500000
0.54350000
0.53400000
0.52450000
0.52700000
0.53200000
0.52600000
0.53000000
0.53600000
0.54150000
0.54100000
0.54800000
0.55500000
0.56050000
0.56350000
0.55500000
0.55600000
0.56000000
0.55800000
0.55300000
0.55050000
0.54000000
0.53000000
0.52400000
0.51800000
0.51150000
0.50000000
0.49650000
0.50400000
0.50550000
0.49850000
0.50700000
0.50350000
0.50000000
0.49650000
0.48800000
0.48550000
0.46500000
0.45350000
0.44850000
0.45100000
0.44300000
0.42350000
0.41450000
0.41200000
0.42400000
0.42050000
0.40850000
0.40050000
0.38600000
0.36950000
0.35800000
0.35300000
0.35050000
0.34350000
0.33900000
0.34450000
0.33500000
0.29950000
0.26150000
0.24950000
0.25450000
0.26800000
0.28050000
0.26600000
0.23800000
0.22000000
0.21550000
0.22250000
0.22450000
0.22600000
0.23500000
0.24450000
0.25900000
0.26300000
0.24950000
0.24050000
0.21350000
0.17700000
0.13650000
0.08050000
0.03600000
0.00300000
-0.00850000
-0.01150000
-0.01300000
0.00050000
0.02350000
0.04650000
0.08000000
0.12050000
0.15400000
0.17100000
0.18700000
0.22750000
0.26250000
0.29500000
0.32200000
0.34550000
0.36850000
0.37550000
0.37600000
0.37600000
0.37950000
0.39400000
0.41350000
0.42150000
0.43000000
0.45450000
0.48000000
0.49900000
0.52700000
0.54150000
0.54450000
0.54550000
0.54100000
0.54200000
0.54150000
0.53800000
0.52500000
0.52900000
0.54050000
0.52650000
0.52650000
0.53400000
0.52800000
0.53450000
0.54050000
0.54500000
0.55650000
0.55500000
0.56250000
0.56900000
0.57250000
0.57750000
0.57100000
0.56900000
0.56950000
0.56750000
0.56450000
0.56700000
0.55150000
0.54100000
0.54200000
0.54400000
0.54650000
0.54200000
0.54900000
0.55700000
0.56300000
0.57400000
0.58200000
0.57750000
0.57700000
0.57750000
0.57950000
0.58100000
0.58200000
0.58200000
0.57650000
0.57050000
0.55950000
0.56200000
0.56050000
0.56900000
0.57350000
0.56800000
0.57350000
0.57550000
0.58100000
0.57800000
0.58200000
0.58600000
0.57850000
0.57450000
0.56700000
0.56250000
0.56150000
0.55500000
0.54800000
0.54500000
0.54100000
0.53650000
0.52950000
0.52800000
0.52650000
0.51550000
0.51450000
0.52950000
0.53900000
0.54000000
0.55000000
0.55250000
0.55700000
0.56050000
0.55950000
0.56400000
0.56900000
0.56700000
0.55800000
0.56050000
0.54750000
0.54450000
0.55150000
0.55850000
0.55800000
0.54500000
0.55950000
0.56350000
0.55700000
0.54900000
0.55400000
0.56550000
0.56300000
0.56050000
0.56050000
0.56550000
0.55550000
0.54900000
0.55150000
0.54150000
0.53150000
0.52900000
0.52950000
0.52700000
0.52350000
0.52300000
0.52600000
0.53600000
0.53900000
0.54050000
0.55100000
0.55250000
0.55300000
0.55050000
0.55200000
0.55600000
0.55100000
0.54500000
0.53400000
0.53400000
0.52650000
0.51750000
0.51550000
0.51250000
0.52100000
0.52150000
0.51900000
0.53050000
0.53550000
0.53750000
0.55150000
0.55700000
0.55700000
0.55250000
0.54950000
0.55400000
0.55700000
0.55400000
0.54400000
0.54000000
0.53200000
0.53600000
0.53350000
0.52850000
0.54350000
0.54400000
0.53500000
0.54250000
0.55650000
0.55850000
0.56250000
0.57300000
0.58300000
0.58350000
0.57700000
0.58000000
0.58350000
0.57150000
0.55400000
0.54700000
0.54950000
0.55450000
0.55500000
0.55600000
0.55850000
0.56500000
0.56150000
0.56900000
0.58800000
0.59600000
0.60650000
0.60200000
0.60150000
0.59650000
0.58900000
0.59000000
0.58700000
0.58200000
0.57650000
0.57450000
0.56450000
0.56750000
0.56800000
0.57300000
0.57950000
0.57950000
0.58200000
0.58600000
0.60250000
0.60750000
0.61400000
0.62200000
0.62550000
0.62550000
0.63100000
0.63700000
0.63300000
0.63000000
0.62350000
0.60400000
0.58700000
0.59900000
0.59550000
0.59050000
0.59400000
0.59100000
0.59000000
0.58950000
0.61100000
0.62750000
0.63350000
0.64850000
0.66100000
0.66350000
0.66650000
0.66700000
0.65900000
0.65250000
0.64400000
0.63100000
0.61350000
0.61000000
0.61600000
0.61900000
0.61300000
0.60300000
0.60900000
0.61400000
0.62900000
0.64150000
0.64950000
0.65750000
0.66200000
0.67800000
0.67900000
0.68100000
0.68500000
0.68100000
0.68250000
0.68650000
0.68700000
0.68450000
0.67500000
0.66800000
0.67300000
0.66900000
0.66350000
0.66850000
0.67000000
0.67550000
0.68350000
0.67750000
0.68300000
0.68450000
0.68450000
0.69350000
0.69100000
0.68650000
0.67950000
0.67300000
0.65650000
0.65050000
0.64950000
0.64950000
0.65350000
0.63950000
0.64100000
0.65800000
0.66000000
0.67200000
0.69650000
0.69800000
0.68950000
0.68700000
0.69600000
0.69600000
0.68500000
0.67450000
0.66350000
0.65950000
0.64350000
0.63650000
0.63200000
0.62700000
0.61700000
0.61100000
0.61650000
0.61550000
0.61900000
0.61700000
0.62150000
0.62550000
0.63150000
0.62550000
0.62550000
0.63950000
0.63300000
0.62950000
0.61900000
0.60250000
0.60150000
0.59650000
0.58600000
0.58300000
0.58200000
0.57900000
0.57750000
0.58500000
0.58550000
0.59900000
0.61650000
0.60800000
0.60700000
0.61150000
0.61450000
0.61800000
0.61400000
0.60200000
0.59500000
0.59000000
0.58150000
0.57700000
0.57200000
0.57350000
0.57100000
0.57150000
0.56950000
0.58400000
0.59150000
0.58650000
0.60550000
0.61550000
0.61700000
0.61250000
0.61300000
0.61450000
0.60950000
0.59700000
0.58150000
0.57800000
0.57400000
0.57000000
0.56900000
0.57150000
0.56750000
0.56700000
0.57400000
0.57800000
0.58250000
0.58450000
0.59150000
0.59350000
0.59300000
0.59200000
0.59050000
0.59100000
0.59050000
0.58650000
0.58100000
0.57750000
0.56600000
0.55800000
0.55500000
0.55750000
0.55250000
0.55200000
0.56650000
0.56600000
0.57250000
0.58100000
0.59250000
0.60400000
0.60800000
0.60800000
0.59950000
0.59650000
0.59100000
0.58600000
0.58150000
0.57100000
0.56650000
0.56300000
0.56050000
0.56550000
0.56100000
0.56050000
0.56400000
0.56600000
0.56750000
0.56200000
0.56900000
0.57650000
0.58000000
0.58050000
0.58600000
0.59450000
0.59350000
0.59300000
0.58400000
0.57700000
0.57500000
0.57300000
0.57050000
0.57450000
0.57850000
0.56850000
0.56850000
0.58250000
0.59300000
0.59600000
0.60000000
0.60100000
0.60250000
0.60100000
0.59300000
0.59500000
0.59750000
0.59100000
0.59000000
0.58900000
0.57800000
0.57300000
0.57200000
0.57300000
0.57550000
0.57700000
0.58250000
0.58900000
0.59400000
0.59850000
0.59950000
0.59750000
0.60500000
0.60400000
0.60100000
0.60450000
0.60750000
0.60600000
0.59800000
0.58750000
0.58100000
0.58000000
0.57450000
0.57800000
0.57900000
0.57850000
0.58250000
0.58900000
0.59900000
0.61150000
0.62050000
0.62850000
0.63600000
0.63150000
0.63000000
0.62450000
0.61550000
0.60300000
0.59850000
0.59700000
0.58600000
0.58800000
0.59150000
0.59150000
0.58250000
0.57900000
0.58750000
0.59750000
0.60150000
0.60450000
0.61250000
0.61950000
0.62750000
0.62350000
0.62600000
0.63100000
0.62400000
0.61600000
0.61200000
0.60800000
0.60050000
0.60150000
0.60200000
0.60450000
0.60450000
0.60450000
0.61100000
0.61850000
0.62500000
0.63400000
0.64350000
0.64000000
0.64200000
0.63550000
0.63550000
0.64350000
0.63850000
0.63250000
0.62450000
0.61450000
0.60000000
0.59850000
0.59800000
0.59450000
0.59600000
0.59850000
0.60600000
0.61850000
0.62850000
0.63600000
0.64550000
0.64250000
0.64900000
0.65000000
0.64550000
0.65200000
0.64800000
0.64350000
0.64050000
0.63350000
0.62500000
0.62200000
0.62400000
0.63050000
0.63000000
0.63150000
0.63500000
0.63650000
0.64650000
0.65200000
0.65750000
0.65250000
0.65400000
0.66350000
0.66350000
0.66300000
0.65550000
0.64600000
0.64350000
0.63950000
0.63100000
0.62550000
0.61950000
0.61900000
0.61650000
